Date,Open,High,Low,Close,Adj Close,Volume
2022-04-29,19.350000,19.350000,18.799999,18.900000,18.900000,7582
2022-05-02,null,null,null,null,null,null
2022-05-04,18.700001,18.799999,18.200001,18.500000,18.500000,7155
2022-05-05,18.600000,18.600000,17.900000,18.000000,18.000000,8017
2022-05-06,18.299999,18.299999,17.650000,17.750000,17.750000,4464
2022-05-09,17.500000,17.549999,16.900000,17.100000,17.100000,12649
2022-05-10,17.400000,17.950001,17.049999,17.200001,17.200001,9479
2022-05-11,17.200001,17.250000,16.250000,17.150000,17.150000,7886
2022-05-12,16.600000,16.900000,16.299999,16.549999,16.549999,4689
2022-05-13,17.250000,17.250000,16.549999,16.700001,16.700001,6739
2022-05-16,17.000000,17.500000,17.000000,17.299999,17.299999,5944
2022-05-17,17.900000,17.900000,17.250000,17.850000,17.850000,5959
2022-05-18,17.750000,18.350000,17.400000,17.799999,17.799999,11363
2022-05-19,17.400000,17.750000,17.000000,17.250000,17.250000,3522
2022-05-20,17.400000,17.750000,17.299999,17.650000,17.650000,1761
2022-05-23,17.650000,17.850000,17.200001,17.350000,17.350000,4787
2022-05-24,17.100000,17.299999,16.850000,17.049999,17.049999,10681
2022-05-25,17.000000,17.000000,16.500000,16.650000,16.650000,10840
2022-05-26,17.150000,17.150000,16.150000,16.450001,16.450001,1615
2022-05-27,16.850000,17.200001,16.549999,16.900000,16.900000,3201
2022-05-30,17.100000,17.150000,16.850000,17.150000,17.150000,7324
2022-05-31,17.000000,17.000000,16.000000,16.750000,16.750000,12326
2022-06-01,16.850000,16.950001,16.350000,16.600000,16.600000,3801
2022-06-02,16.650000,16.750000,16.350000,16.500000,16.500000,3926
2022-06-03,16.750000,16.750000,16.150000,16.150000,16.150000,1365
2022-06-06,16.200001,16.350000,16.150000,16.150000,16.150000,452
2022-06-07,16.500000,16.500000,16.150000,16.200001,16.200001,435
2022-06-08,16.450001,16.650000,16.150000,16.200001,16.200001,1920
2022-06-09,16.100000,16.450001,15.900000,16.049999,16.049999,13308
2022-06-10,16.350000,16.350000,15.650000,16.200001,16.200001,1661
2022-06-13,15.850000,16.000000,15.400000,15.500000,15.500000,4453
2022-06-14,15.800000,16.450001,15.700000,15.850000,15.850000,9482
2022-06-15,15.850000,16.000000,15.650000,15.700000,15.700000,1036
2022-06-16,15.400000,16.049999,15.250000,15.550000,15.550000,3346
2022-06-17,15.650000,15.650000,15.050000,15.250000,15.250000,6995
2022-06-20,15.200000,15.500000,14.300000,14.750000,14.750000,14885
2022-06-21,14.850000,15.150000,14.750000,14.850000,14.850000,4578
2022-06-22,16.600000,16.600000,14.650000,14.850000,14.850000,4867
2022-06-23,15.000000,15.300000,14.700000,14.850000,14.850000,482
2022-06-24,15.400000,15.750000,15.100000,15.450000,15.450000,2776
2022-06-27,15.450000,15.650000,15.300000,15.550000,15.550000,2293
2022-06-28,15.150000,15.700000,14.850000,15.550000,15.550000,1319
2022-06-29,14.500000,15.950000,14.500000,15.500000,15.500000,4106
2022-06-30,15.500000,15.600000,15.000000,15.300000,15.300000,2477
2022-07-01,15.350000,15.800000,15.100000,15.500000,15.500000,4205
2022-07-04,15.750000,15.750000,15.200000,15.600000,15.600000,6031
2022-07-05,15.750000,17.250000,15.500000,16.250000,16.250000,28815
2022-07-06,16.350000,16.500000,16.000000,16.000000,16.000000,7370
2022-07-07,16.150000,16.500000,16.100000,16.150000,16.150000,2277
2022-07-08,16.250000,16.400000,16.049999,16.049999,16.049999,7029
2022-07-11,16.549999,16.549999,15.900000,16.250000,16.250000,915
2022-07-12,16.250000,16.350000,15.550000,16.000000,16.000000,7726
2022-07-13,16.000000,16.500000,16.000000,16.250000,16.250000,5827
2022-07-14,16.350000,16.750000,15.750000,15.850000,15.850000,6987
2022-07-15,15.550000,16.350000,15.500000,15.800000,15.800000,5703
2022-07-18,16.000000,16.299999,16.000000,16.200001,16.200001,360
2022-07-19,16.350000,16.500000,16.049999,16.200001,16.200001,9793
2022-07-20,16.450001,16.650000,16.250000,16.299999,16.299999,5727
2022-07-21,16.299999,16.299999,16.000000,16.049999,16.049999,976
2022-07-22,16.350000,16.350000,16.000000,16.100000,16.100000,9228
2022-07-25,16.100000,16.400000,15.800000,15.950000,15.950000,1985
2022-07-26,15.800000,16.100000,15.750000,15.750000,15.750000,1369
2022-07-27,16.049999,16.400000,15.750000,16.150000,16.150000,2105
2022-07-28,16.049999,16.250000,15.700000,15.850000,15.850000,5733
2022-07-29,16.150000,16.200001,15.800000,15.900000,15.900000,1411
2022-08-01,16.200001,16.799999,16.150000,16.450001,16.450001,20876
2022-08-02,16.500000,17.049999,16.500000,16.799999,16.799999,2055
2022-08-03,16.850000,17.049999,16.049999,16.400000,16.400000,1713
2022-08-04,16.549999,16.750000,16.350000,16.750000,16.750000,1494
2022-08-05,16.600000,16.650000,16.000000,16.400000,16.400000,3196
2022-08-08,16.600000,16.750000,16.200001,16.400000,16.400000,4532
2022-08-10,16.100000,17.150000,16.049999,16.600000,16.600000,16476
2022-08-11,16.549999,16.750000,16.250000,16.250000,16.250000,777
2022-08-12,16.500000,16.500000,15.950000,16.299999,16.299999,4823
2022-08-16,16.450001,16.549999,16.049999,16.250000,16.250000,837
2022-08-17,16.799999,17.000000,16.350000,16.650000,16.650000,9830
2022-08-18,17.400000,17.400000,16.250000,16.500000,16.500000,8799
2022-08-19,17.250000,17.450001,16.200001,16.650000,16.650000,6035
2022-08-22,16.799999,17.350000,16.049999,16.250000,16.250000,10986
2022-08-23,16.350000,16.799999,16.200001,16.400000,16.400000,7167
2022-08-24,16.549999,17.200001,15.600000,16.850000,16.850000,41712
2022-08-25,17.400000,17.400000,16.650000,16.900000,16.900000,5075
2022-08-26,17.150000,17.200001,16.900000,17.100000,17.100000,8231
2022-08-29,16.799999,17.350000,16.350000,16.850000,16.850000,6698
2022-08-30,16.799999,17.299999,16.799999,17.000000,17.000000,525
2022-09-01,17.299999,17.299999,16.799999,16.950001,16.950001,4020
2022-09-02,16.700001,17.350000,16.700001,16.850000,16.850000,7285
2022-09-05,17.200001,17.200001,16.450001,16.750000,16.750000,6935
2022-09-06,16.500000,17.250000,16.500000,16.750000,16.750000,5979
2022-09-07,17.250000,17.250000,16.650000,16.700001,16.700001,2782
2022-09-08,16.950001,18.049999,16.700001,17.750000,17.750000,40589
2022-09-09,17.850000,18.400000,17.650000,17.750000,17.750000,16800
2022-09-12,18.200001,18.200001,17.400000,17.400000,17.400000,5389
2022-09-13,17.799999,18.049999,17.350000,17.900000,17.900000,28532
2022-09-14,17.700001,17.700001,17.299999,17.600000,17.600000,6428
2022-09-15,18.049999,18.049999,17.000000,17.250000,17.250000,15899
2022-09-16,16.900000,17.150000,16.500000,16.750000,16.750000,16354
2022-09-19,16.700001,17.299999,16.500000,16.500000,16.500000,1936
2022-09-20,16.400000,16.950001,16.400000,16.750000,16.750000,621
2022-09-21,16.750000,16.750000,16.400000,16.600000,16.600000,2695
2022-09-22,16.400000,16.750000,16.400000,16.600000,16.600000,1217
2022-09-23,16.549999,16.950001,16.000000,16.100000,16.100000,11191
2022-09-26,15.800000,16.450001,15.300000,15.400000,15.400000,5800
2022-09-27,15.150000,16.200001,15.150000,15.750000,15.750000,1540
2022-09-28,15.450000,16.100000,15.350000,15.800000,15.800000,1757
2022-09-29,15.750000,15.950000,15.450000,15.500000,15.500000,7197
2022-09-30,15.650000,15.800000,15.300000,15.450000,15.450000,3213
2022-10-03,15.200000,15.900000,15.100000,15.250000,15.250000,11671
2022-10-04,15.550000,15.800000,15.550000,15.750000,15.750000,100
2022-10-06,15.550000,16.299999,15.300000,16.150000,16.150000,3175
2022-10-07,16.150000,16.250000,16.100000,16.250000,16.250000,1078
2022-10-10,15.650000,16.299999,15.650000,16.049999,16.049999,2827
2022-10-11,16.000000,16.200001,16.000000,16.200001,16.200001,155
2022-10-12,15.400000,16.450001,15.400000,16.000000,16.000000,2021
2022-10-13,16.400000,16.400000,15.750000,15.850000,15.850000,942
2022-10-14,15.850000,16.100000,15.750000,15.800000,15.800000,2334
2022-10-17,15.850000,15.950000,15.450000,15.500000,15.500000,723
2022-10-18,15.600000,15.750000,15.300000,15.550000,15.550000,5331
2022-10-19,15.650000,15.800000,15.500000,15.550000,15.550000,2563
2022-10-20,15.500000,15.700000,15.250000,15.400000,15.400000,3060
2022-10-21,15.700000,15.700000,15.350000,15.500000,15.500000,4250
2022-10-24,15.700000,15.750000,15.400000,15.550000,15.550000,216
2022-10-25,15.250000,15.750000,15.250000,15.450000,15.450000,3109
2022-10-27,15.700000,15.700000,15.400000,15.400000,15.400000,9106
2022-10-28,15.150000,16.100000,15.150000,15.900000,15.900000,6364
2022-10-31,16.049999,16.299999,15.500000,15.850000,15.850000,3493
2022-11-01,15.850000,16.150000,15.750000,15.900000,15.900000,9339
2022-11-02,15.900000,15.900000,15.550000,15.550000,15.550000,361
2022-11-03,15.500000,15.800000,15.500000,15.500000,15.500000,2921
2022-11-04,15.650000,16.200001,15.650000,16.049999,16.049999,3637
2022-11-07,16.250000,16.299999,15.750000,16.200001,16.200001,3785
2022-11-09,15.700000,16.500000,15.500000,16.200001,16.200001,13929
2022-11-10,16.400000,16.650000,16.250000,16.450001,16.450001,3180
2022-11-11,16.400000,16.750000,15.800000,16.100000,16.100000,5870
2022-11-14,16.000000,16.100000,15.750000,15.800000,15.800000,1829
2022-11-15,15.600000,15.800000,15.500000,15.650000,15.650000,9533
2022-11-16,15.550000,15.750000,15.400000,15.500000,15.500000,3759
2022-11-17,16.299999,16.299999,15.400000,15.600000,15.600000,5010
2022-11-18,15.750000,15.750000,15.400000,15.400000,15.400000,431
2022-11-21,15.350000,15.400000,15.100000,15.250000,15.250000,4799
2022-11-22,14.900000,15.600000,14.900000,15.300000,15.300000,5708
2022-11-23,15.300000,15.800000,15.100000,15.400000,15.400000,20577
2022-11-24,15.200000,15.550000,15.200000,15.400000,15.400000,451
2022-11-25,15.500000,15.800000,15.200000,15.500000,15.500000,7751
2022-11-28,15.750000,15.750000,15.300000,15.450000,15.450000,1144
2022-11-29,15.100000,15.750000,15.100000,15.500000,15.500000,7149
2022-11-30,15.850000,16.000000,15.300000,15.400000,15.400000,4428
2022-12-01,15.450000,15.600000,14.850000,15.250000,15.250000,17922
2022-12-02,15.150000,15.350000,15.050000,15.150000,15.150000,18166
2022-12-05,15.150000,15.600000,15.150000,15.350000,15.350000,36601
2022-12-06,15.150000,15.600000,15.150000,15.200000,15.200000,7530
2022-12-07,15.300000,15.500000,15.050000,15.200000,15.200000,7035
2022-12-08,15.200000,15.350000,14.800000,15.150000,15.150000,6960
2022-12-09,15.200000,15.350000,15.100000,15.150000,15.150000,5639
2022-12-12,14.750000,15.350000,14.750000,15.050000,15.050000,6489
2022-12-13,15.000000,16.900000,14.850000,16.100000,16.100000,73084
2022-12-14,16.450001,16.500000,16.000000,16.100000,16.100000,18508
2022-12-15,15.950000,16.200001,15.100000,15.250000,15.250000,16040
2022-12-16,15.650000,15.650000,15.250000,15.350000,15.350000,3829
2022-12-19,15.600000,16.299999,15.250000,15.850000,15.850000,74413
2022-12-20,15.850000,17.500000,15.850000,16.549999,16.549999,53604
2022-12-21,16.850000,17.049999,15.200000,15.300000,15.300000,56662
2022-12-22,15.450000,15.500000,14.800000,15.050000,15.050000,9899
2022-12-23,14.900000,15.000000,14.450000,14.500000,14.500000,18525
2022-12-26,14.700000,15.350000,14.700000,15.100000,15.100000,5159
2022-12-27,15.300000,15.350000,15.000000,15.050000,15.050000,5683
2022-12-28,15.550000,15.550000,15.050000,15.250000,15.250000,9064
2022-12-29,15.000000,15.650000,15.000000,15.200000,15.200000,13529
2022-12-30,15.250000,15.800000,15.100000,15.500000,15.500000,19962
2023-01-02,15.100000,16.250000,15.100000,16.049999,16.049999,28540
2023-01-03,16.100000,16.299999,15.400000,16.150000,16.150000,6449
2023-01-04,15.900000,16.049999,15.600000,15.750000,15.750000,20873
2023-01-05,15.850000,15.850000,15.600000,15.750000,15.750000,1985
2023-01-06,15.700000,15.850000,15.500000,15.800000,15.800000,1297
2023-01-09,16.000000,16.100000,15.400000,15.550000,15.550000,2683
2023-01-10,15.450000,15.500000,15.150000,15.250000,15.250000,6308
2023-01-11,15.500000,16.299999,15.400000,15.400000,15.400000,13096
2023-01-12,15.550000,15.700000,15.300000,15.300000,15.300000,657
2023-01-13,15.350000,15.850000,15.100000,15.350000,15.350000,2627
2023-01-16,15.500000,15.750000,15.200000,15.250000,15.250000,3772
2023-01-17,15.250000,15.650000,15.250000,15.450000,15.450000,389
2023-01-18,15.350000,15.550000,15.200000,15.300000,15.300000,2116
2023-01-19,15.200000,15.250000,15.050000,15.050000,15.050000,6266
2023-01-20,15.200000,15.350000,15.050000,15.150000,15.150000,1894
2023-01-23,15.200000,15.500000,14.200000,15.050000,15.050000,3336
2023-01-24,15.050000,15.100000,14.750000,15.000000,15.000000,1950
2023-01-25,14.900000,15.000000,14.700000,14.700000,14.700000,6647
2023-01-27,14.700000,14.700000,14.250000,14.350000,14.350000,1664
2023-01-30,14.500000,14.600000,14.300000,14.350000,14.350000,2797
2023-01-31,14.200000,14.650000,14.200000,14.350000,14.350000,4443
2023-02-01,14.000000,14.450000,14.000000,14.050000,14.050000,8755
2023-02-02,14.150000,14.200000,14.050000,14.050000,14.050000,1991
2023-02-03,14.050000,14.390000,13.660000,13.990000,13.990000,3894
2023-02-06,13.600000,13.880000,13.600000,13.690000,13.690000,3770
2023-02-07,13.690000,13.970000,13.280000,13.780000,13.780000,4490
2023-02-08,13.410000,13.970000,13.410000,13.710000,13.710000,6448
2023-02-09,13.900000,14.000000,13.580000,13.740000,13.740000,10306
2023-02-10,13.880000,13.920000,13.880000,13.900000,13.900000,1008
2023-02-13,13.710000,14.100000,13.600000,13.690000,13.690000,5842
2023-02-14,13.600000,13.790000,13.370000,13.440000,13.440000,3615
2023-02-15,13.300000,13.370000,13.250000,13.300000,13.300000,6794
2023-02-16,13.380000,13.580000,13.330000,13.350000,13.350000,1324
2023-02-17,13.520000,13.600000,13.430000,13.570000,13.570000,1015
2023-02-20,13.480000,13.500000,13.250000,13.300000,13.300000,660
2023-02-21,13.200000,13.270000,13.200000,13.200000,13.200000,1258
2023-02-22,13.250000,13.490000,13.000000,13.050000,13.050000,7497
2023-02-23,13.460000,13.460000,13.270000,13.280000,13.280000,854
2023-02-24,13.280000,13.280000,12.610000,13.010000,13.010000,10807
2023-02-27,13.150000,13.170000,11.280000,11.380000,11.380000,22738
2023-02-28,11.420000,11.690000,11.000000,11.640000,11.640000,2713
2023-03-01,11.300000,12.480000,11.300000,12.290000,12.290000,4904
2023-03-02,13.000000,13.000000,12.400000,12.660000,12.660000,4484
2023-03-03,12.590000,12.990000,12.580000,12.600000,12.600000,2930
2023-03-06,12.600000,12.800000,12.600000,12.720000,12.720000,7847
2023-03-08,12.630000,12.890000,12.550000,12.840000,12.840000,588
2023-03-09,12.730000,12.750000,12.510000,12.640000,12.640000,3976
2023-03-10,12.400000,12.500000,11.500000,11.720000,11.720000,8965
2023-03-13,11.720000,11.820000,10.950000,11.180000,11.180000,10077
2023-03-14,11.180000,11.400000,11.180000,11.360000,11.360000,237
2023-03-15,11.520000,11.770000,11.400000,11.520000,11.520000,21329
2023-03-16,11.400000,11.520000,11.120000,11.520000,11.520000,1383
2023-03-17,11.600000,11.670000,11.000000,11.500000,11.500000,13006
2023-03-20,11.200000,11.850000,10.900000,10.960000,10.960000,38654
2023-03-21,11.120000,11.200000,10.970000,11.000000,11.000000,8538
2023-03-22,11.070000,11.390000,10.800000,10.980000,10.980000,3877
2023-03-23,11.120000,11.380000,11.000000,11.010000,11.010000,17998
2023-03-24,10.800000,11.430000,10.750000,10.770000,10.770000,9484
2023-03-27,10.500000,11.100000,10.420000,10.510000,10.510000,22398
2023-03-28,10.650000,11.090000,10.300000,10.670000,10.670000,9624
2023-03-29,10.430000,10.900000,10.400000,10.750000,10.750000,13059
2023-03-31,10.750000,11.560000,10.300000,11.330000,11.330000,28712
2023-04-03,11.130000,13.340000,11.100000,12.760000,12.760000,8553
2023-04-05,12.050000,13.150000,12.000000,12.260000,12.260000,14889
2023-04-06,12.000000,12.470000,11.700000,12.200000,12.200000,7046
2023-04-10,11.850000,12.400000,11.700000,11.830000,11.830000,3896
2023-04-11,11.900000,13.210000,11.900000,13.040000,13.040000,14227
2023-04-12,13.420000,13.500000,12.720000,12.740000,12.740000,3054
2023-04-13,13.000000,13.500000,13.000000,13.050000,13.050000,1109
2023-04-17,13.050000,13.050000,12.610000,12.730000,12.730000,2477
2023-04-18,12.730000,12.970000,12.610000,12.750000,12.750000,4359
2023-04-19,12.920000,12.920000,12.450000,12.670000,12.670000,599
2023-04-20,12.700000,12.700000,12.310000,12.560000,12.560000,1875
2023-04-21,12.560000,12.560000,12.100000,12.300000,12.300000,4216
2023-04-24,12.000000,12.640000,11.990000,12.320000,12.320000,1495
2023-04-25,12.100000,12.730000,12.100000,12.520000,12.520000,2714
2023-04-26,12.560000,12.620000,12.050000,12.480000,12.480000,4538
2023-04-27,12.530000,12.750000,12.450000,12.670000,12.670000,751
2023-04-28,12.750000,12.810000,12.300000,12.750000,12.750000,6334
2023-05-02,12.750000,12.930000,12.400000,12.400000,12.400000,2880
2023-05-03,12.450000,12.750000,12.400000,12.750000,12.750000,1251
2023-05-04,12.950000,13.320000,12.910000,12.930000,12.930000,9285
2023-05-05,13.020000,13.190000,12.520000,12.950000,12.950000,5034
2023-05-08,12.410000,14.190000,12.410000,13.880000,13.880000,50783
2023-05-09,13.730000,14.000000,13.600000,13.710000,13.710000,1649
2023-05-10,13.500000,13.500000,13.080000,13.090000,13.090000,4408
2023-05-11,13.280000,13.280000,13.120000,13.150000,13.150000,3074
2023-05-12,13.130000,13.240000,13.110000,13.120000,13.120000,2056
2023-05-15,13.220000,13.840000,13.000000,13.260000,13.260000,6781
2023-05-16,13.250000,13.610000,13.060000,13.090000,13.090000,12186
2023-05-17,13.190000,13.190000,12.820000,12.970000,12.970000,1312
2023-05-18,null,null,null,null,null,null
2023-05-19,12.920000,12.920000,12.730000,12.910000,12.910000,567
2023-05-22,12.910000,12.980000,12.680000,12.920000,12.920000,2072
2023-05-23,12.880000,13.000000,12.790000,12.790000,12.790000,1017
2023-05-24,12.480000,13.270000,12.480000,13.070000,13.070000,4725
2023-05-25,13.530000,13.750000,13.430000,13.520000,13.520000,1234
2023-05-26,13.670000,13.990000,13.500000,13.680000,13.680000,7525
2023-05-29,null,null,null,null,null,null
2023-05-30,13.380000,13.480000,13.060000,13.380000,13.380000,3675
2023-05-31,13.080000,13.390000,12.790000,12.950000,12.950000,5733
2023-06-01,13.170000,13.260000,12.750000,13.100000,13.100000,5228
2023-06-02,13.080000,13.110000,12.990000,12.990000,12.990000,2006
2023-06-05,12.980000,13.500000,12.900000,13.010000,13.010000,3303
2023-06-06,13.080000,13.220000,12.850000,12.980000,12.980000,3411
2023-06-07,12.880000,13.950000,12.860000,13.430000,13.430000,46538
2023-06-08,13.600000,13.600000,12.860000,13.030000,13.030000,13742
2023-06-09,13.400000,13.400000,13.010000,13.210000,13.210000,5837
2023-06-12,12.850000,13.400000,12.850000,13.110000,13.110000,4451
2023-06-13,13.470000,13.530000,13.320000,13.320000,13.320000,513
2023-06-14,13.320000,13.830000,13.000000,13.600000,13.600000,18814
2023-06-15,13.900000,13.900000,13.150000,13.200000,13.200000,2261
2023-06-16,13.280000,13.550000,13.100000,13.550000,13.550000,5615
2023-06-19,13.800000,13.800000,13.110000,13.210000,13.210000,7425
2023-06-20,13.180000,13.570000,13.060000,13.280000,13.280000,8154
2023-06-21,13.130000,13.570000,13.130000,13.430000,13.430000,590
2023-06-22,13.430000,13.600000,13.010000,13.280000,13.280000,9548
2023-06-23,13.100000,13.200000,13.050000,13.050000,13.050000,6510
2023-06-26,13.220000,13.270000,13.000000,13.180000,13.180000,3729
2023-06-27,13.350000,13.370000,13.000000,13.080000,13.080000,1351
2023-06-28,13.100000,13.100000,13.080000,13.080000,13.080000,506
2023-06-30,13.080000,13.400000,13.050000,13.070000,13.070000,4990
2023-07-03,null,null,null,null,null,null
2023-07-04,null,null,null,null,null,null
2023-07-05,null,null,null,null,null,null
2023-07-06,null,null,null,null,null,null
2023-07-07,13.270000,13.280000,12.530000,12.920000,12.920000,9294
2023-07-10,12.630000,13.280000,12.610000,12.900000,12.900000,1834
2023-07-11,null,null,null,null,null,null
2023-07-12,null,null,null,null,null,null
2023-07-13,null,null,null,null,null,null
2023-07-14,12.960000,12.960000,12.550000,12.630000,12.630000,2420
2023-07-17,12.940000,12.990000,12.530000,12.700000,12.700000,1656
2023-07-18,null,null,null,null,null,null
2023-07-19,12.720000,12.920000,12.600000,12.630000,12.630000,7957
2023-07-20,12.630000,12.670000,12.450000,12.620000,12.620000,5101
2023-07-21,12.500000,12.790000,12.480000,12.500000,12.500000,4165
2023-07-24,12.350000,12.630000,12.320000,12.350000,12.350000,19754
2023-07-25,null,null,null,null,null,null
2023-07-26,12.310000,12.600000,12.300000,12.550000,12.550000,9200
2023-07-27,null,null,null,null,null,null
2023-07-28,12.200000,12.540000,12.200000,12.350000,12.350000,8297
2023-07-31,null,null,null,null,null,null
2023-08-01,null,null,null,null,null,null
2023-08-02,null,null,null,null,null,null
2023-08-03,12.400000,12.500000,12.220000,12.270000,12.270000,5399
2023-08-04,12.100000,12.440000,12.100000,12.300000,12.300000,1195
2023-08-07,12.790000,12.800000,12.120000,12.210000,12.210000,12624
2023-08-08,12.150000,12.550000,12.110000,12.150000,12.150000,4182
2023-08-09,12.450000,12.450000,12.160000,12.210000,12.210000,442
2023-08-10,12.290000,12.550000,12.130000,12.200000,12.200000,15220
2023-08-11,12.200000,13.470000,12.120000,12.850000,12.850000,114127
2023-08-14,12.900000,13.250000,12.710000,12.730000,12.730000,6029
2023-08-16,11.150000,13.840000,11.150000,13.430000,13.430000,16035
2023-08-17,13.540000,14.000000,12.950000,13.320000,13.320000,46259
2023-08-18,13.320000,13.380000,13.010000,13.010000,13.010000,2701
2023-08-21,13.220000,13.380000,13.050000,13.110000,13.110000,6554
2023-08-22,13.250000,13.400000,13.020000,13.060000,13.060000,15662
2023-08-23,13.170000,13.640000,13.120000,13.200000,13.200000,28379
2023-08-24,13.470000,13.530000,13.180000,13.270000,13.270000,6655
2023-08-25,13.280000,13.720000,13.280000,13.400000,13.400000,509
2023-08-28,12.800000,13.420000,12.800000,13.100000,13.100000,11374
2023-08-29,13.330000,13.430000,13.030000,13.060000,13.060000,8736
2023-08-30,13.060000,13.400000,13.000000,13.130000,13.130000,6317
2023-08-31,13.130000,13.300000,12.750000,12.950000,12.950000,63345
2023-09-01,12.800000,13.150000,12.800000,13.060000,13.060000,13921
2023-09-04,13.150000,13.440000,13.120000,13.260000,13.260000,34613
2023-09-05,13.400000,15.910000,13.400000,15.910000,15.910000,686864
2023-09-06,16.059999,17.330000,15.100000,16.950001,16.950001,370686
2023-09-07,17.000000,18.500000,16.549999,17.049999,17.049999,281437
2023-09-08,17.700001,17.700001,16.100000,16.309999,16.309999,87682
2023-09-11,16.309999,16.639999,16.000000,16.260000,16.260000,29286
2023-09-12,16.020000,16.290001,14.700000,14.940000,14.940000,75831
2023-09-13,15.000000,15.650000,14.600000,15.540000,15.540000,7318
2023-09-14,16.750000,16.750000,15.500000,15.600000,15.600000,5189
2023-09-15,15.310000,16.440001,15.310000,16.129999,16.129999,40336
2023-09-18,15.820000,16.299999,15.650000,16.110001,16.110001,7352
2023-09-20,15.110000,15.790000,15.110000,15.270000,15.270000,21156
2023-09-21,15.380000,15.780000,15.150000,15.240000,15.240000,18413
2023-09-22,15.500000,15.500000,15.000000,15.050000,15.050000,5562
2023-09-25,15.200000,15.590000,15.110000,15.490000,15.490000,13159
2023-09-26,15.250000,15.440000,15.050000,15.080000,15.080000,32813
2023-09-27,15.080000,15.390000,14.810000,15.000000,15.000000,3608
2023-09-28,15.160000,15.260000,14.750000,14.770000,14.770000,14013
2023-09-29,14.800000,15.030000,14.670000,14.670000,14.670000,7882
2023-10-03,15.000000,15.000000,14.660000,14.910000,14.910000,3180
2023-10-04,14.760000,15.000000,14.760000,14.910000,14.910000,8318
2023-10-05,14.910000,14.910000,14.460000,14.720000,14.720000,4998
2023-10-06,14.940000,15.110000,14.710000,15.050000,15.050000,14248
2023-10-09,15.050000,15.050000,14.600000,14.770000,14.770000,4755
2023-10-10,14.990000,14.990000,14.510000,14.570000,14.570000,10476
2023-10-11,14.860000,16.299999,14.740000,16.230000,16.230000,98806
2023-10-12,16.150000,16.500000,15.500000,15.830000,15.830000,85458
2023-10-13,15.510000,16.230000,15.510000,15.650000,15.650000,6509
2023-10-16,15.310000,15.990000,15.250000,15.380000,15.380000,44336
2023-10-17,15.690000,15.690000,15.160000,15.390000,15.390000,2287
2023-10-18,15.160000,15.500000,14.950000,15.190000,15.190000,29321
2023-10-19,14.860000,15.190000,14.860000,14.950000,14.950000,2559
2023-10-20,15.200000,15.350000,14.810000,15.040000,15.040000,12360
2023-10-23,15.120000,15.340000,13.800000,13.870000,13.870000,39366
2023-10-25,13.590000,14.590000,13.590000,14.050000,14.050000,3950
2023-10-26,13.860000,14.140000,13.100000,13.540000,13.540000,96753
2023-10-27,13.740000,14.090000,13.560000,13.770000,13.770000,6077
2023-10-30,13.800000,14.140000,13.610000,13.730000,13.730000,9369
2023-10-31,14.360000,14.360000,13.610000,13.680000,13.680000,199
2023-11-01,13.950000,14.100000,13.710000,13.750000,13.750000,25903
2023-11-02,14.040000,14.240000,13.870000,14.040000,14.040000,326
2023-11-03,14.140000,14.390000,14.000000,14.000000,14.000000,26944
2023-11-06,14.280000,14.740000,14.070000,14.480000,14.480000,10603
2023-11-07,14.210000,14.740000,14.210000,14.570000,14.570000,6259
2023-11-08,14.880000,15.090000,14.450000,14.770000,14.770000,25278
2023-11-09,14.710000,15.090000,14.560000,14.630000,14.630000,1739
2023-11-10,14.450000,16.000000,14.410000,15.640000,15.640000,90618
2023-11-13,15.980000,15.980000,15.240000,15.340000,15.340000,38115
2023-11-15,15.550000,15.790000,15.210000,15.430000,15.430000,5290
2023-11-16,15.140000,15.440000,15.050000,15.220000,15.220000,11815
2023-11-17,15.000000,15.640000,14.950000,15.520000,15.520000,13991
2023-11-20,15.750000,17.450001,15.450000,16.950001,16.950001,235422
2023-11-21,17.990000,18.049999,17.350000,17.920000,17.920000,228527
2023-11-22,18.150000,18.150000,16.660000,16.860001,16.860001,35073
2023-11-23,16.860001,17.190001,16.500000,16.670000,16.670000,48757
2023-11-24,17.000000,17.290001,16.830000,17.010000,17.010000,18703
2023-11-28,17.980000,17.980000,16.570000,16.870001,16.870001,41799
2023-11-29,17.180000,17.180000,16.510000,16.600000,16.600000,27505
2023-11-30,16.889999,16.889999,15.850000,15.980000,15.980000,41905
2023-12-01,16.240000,16.500000,15.950000,16.200001,16.200001,33032
2023-12-04,16.450001,16.450001,16.100000,16.200001,16.200001,18513
2023-12-05,16.010000,16.260000,15.750000,16.030001,16.030001,63008
2023-12-06,16.040001,17.510000,16.040001,17.000000,17.000000,63621
2023-12-07,17.000000,17.600000,16.650000,17.150000,17.150000,56783
2023-12-08,17.490000,17.490000,16.700001,16.709999,16.709999,31657
2023-12-11,17.090000,17.090000,16.440001,16.520000,16.520000,11537
2023-12-12,16.190001,16.940001,16.190001,16.450001,16.450001,10515
2023-12-13,16.120001,16.650000,14.220000,16.430000,16.430000,51311
2023-12-14,16.790001,16.790001,16.180000,16.309999,16.309999,25056
2023-12-15,16.610001,16.750000,16.150000,16.250000,16.250000,5898
2023-12-18,16.590000,19.500000,16.049999,18.950001,18.950001,344051
2023-12-19,18.959999,19.820000,18.299999,18.910000,18.910000,292529
2023-12-20,18.910000,19.770000,17.870001,18.370001,18.370001,65416
2023-12-21,18.430000,19.330000,17.900000,18.840000,18.840000,64921
2023-12-22,19.330000,19.500000,18.160000,18.389999,18.389999,21707
2023-12-26,18.760000,18.780001,17.730000,18.250000,18.250000,25390
2023-12-27,18.500000,18.629999,17.309999,17.530001,17.530001,36863
2023-12-28,17.799999,17.799999,16.549999,16.690001,16.690001,190549
2023-12-29,16.400000,17.770000,16.400000,17.520000,17.520000,38994
2024-01-01,17.990000,19.080000,17.480000,18.340000,18.340000,110192
2024-01-02,18.719999,20.750000,18.500000,20.250000,20.250000,404397
2024-01-03,20.639999,20.730000,19.629999,19.760000,19.760000,91699
2024-01-04,20.160000,20.299999,19.450001,19.549999,19.549999,58867
2024-01-05,19.950001,19.950001,16.209999,19.230000,19.230000,237560
2024-01-08,19.500000,20.090000,19.320000,19.680000,19.680000,31670
2024-01-09,20.100000,20.700001,19.240000,20.330000,20.330000,97232
2024-01-10,20.000000,20.299999,19.760000,19.900000,19.900000,28038
2024-01-11,20.299999,20.299999,19.450001,19.709999,19.709999,4456
2024-01-12,19.930000,20.190001,19.230000,19.330000,19.330000,73439
2024-01-15,19.110001,20.500000,19.110001,19.920000,19.920000,51201
2024-01-16,20.830000,20.830000,19.120001,19.540001,19.540001,56162
2024-01-17,19.930000,19.930000,19.030001,19.049999,19.049999,14391
2024-01-18,null,null,null,null,null,null
2024-01-19,19.530001,20.340000,19.180000,19.910000,19.910000,16644
2024-01-23,19.850000,19.850000,17.910000,18.190001,18.190001,7254
2024-01-24,18.549999,18.549999,17.740000,17.980000,17.980000,25166
2024-01-25,17.799999,18.920000,17.799999,18.530001,18.530001,60627
2024-01-29,19.190001,19.400000,18.389999,18.639999,18.639999,30775
2024-01-30,18.639999,19.920000,18.370001,19.230000,19.230000,80940
2024-01-31,19.600000,19.730000,18.860001,18.969999,18.969999,32675
2024-02-01,18.969999,19.330000,18.400000,18.690001,18.690001,63995
2024-02-02,18.809999,19.059999,18.410000,18.480000,18.480000,59812
2024-02-05,18.600000,18.639999,18.030001,18.100000,18.100000,24840
2024-02-06,17.740000,21.719999,17.740000,21.719999,21.719999,283854
2024-02-07,21.730000,24.379999,20.850000,22.969999,22.969999,470903
2024-02-08,23.730000,23.730000,22.430000,23.020000,23.020000,77650
2024-02-09,24.260000,24.260000,21.030001,21.940001,21.940001,64211
2024-02-12,22.379999,22.430000,19.370001,20.000000,20.000000,36976
2024-02-13,19.650000,20.120001,18.690001,19.219999,19.219999,58301
2024-02-14,19.700001,20.370001,19.230000,20.160000,20.160000,12432
2024-02-15,21.990000,21.990000,20.469999,20.719999,20.719999,37904
2024-02-16,21.010000,21.620001,20.889999,21.180000,21.180000,44295
2024-02-19,21.750000,21.750000,20.620001,20.670000,20.670000,77453
2024-02-20,20.620001,21.120001,20.219999,20.330000,20.330000,13930
2024-02-21,20.330000,20.950001,19.530001,19.750000,19.750000,48581
2024-02-22,19.799999,20.780001,19.170000,20.400000,20.400000,72634
2024-02-23,20.020000,20.680000,19.870001,19.980000,19.980000,40687
2024-02-26,19.910000,20.030001,19.070000,19.309999,19.309999,32662
2024-02-27,19.320000,19.840000,18.670000,18.940001,18.940001,53805
2024-02-28,18.900000,19.219999,17.930000,18.320000,18.320000,62103
2024-02-29,17.959999,18.650000,17.950001,18.330000,18.330000,28737
2024-03-01,18.360001,19.320000,18.360001,19.180000,19.180000,24691
2024-03-04,18.840000,20.400000,18.670000,19.559999,19.559999,178848
2024-03-05,20.350000,20.750000,19.170000,19.350000,19.350000,116260
2024-03-06,19.000000,19.410000,18.500000,18.870001,18.870001,52321
2024-03-07,18.020000,19.170000,18.020000,18.770000,18.770000,33369
2024-03-11,18.250000,18.930000,18.049999,18.209999,18.209999,43444
2024-03-12,18.540001,18.540001,16.600000,16.799999,16.799999,61603
2024-03-13,16.150000,16.850000,15.250000,15.430000,15.430000,17977
2024-03-14,14.900000,16.129999,14.850000,15.840000,15.840000,25677
2024-03-15,15.810000,16.350000,15.520000,15.920000,15.920000,30379
2024-03-18,15.610000,16.200001,15.610000,15.940000,15.940000,15600
2024-03-19,15.110000,16.000000,15.110000,15.400000,15.400000,20982
2024-03-20,15.710000,15.710000,14.600000,14.740000,14.740000,40828
2024-03-21,14.800000,16.450001,14.800000,16.139999,16.139999,44585
2024-03-22,15.800000,16.280001,15.600000,15.900000,15.900000,49805
2024-03-26,16.200001,16.200001,15.430000,15.550000,15.550000,25665
2024-03-27,15.630000,15.630000,14.700000,14.890000,14.890000,47009
2024-03-28,15.250000,15.390000,14.550000,14.690000,14.690000,34971
2024-04-01,14.400000,16.230000,14.400000,16.120001,16.120001,54573
2024-04-02,15.880000,16.750000,15.800000,16.580000,16.580000,43284
2024-04-03,15.610000,17.500000,15.610000,17.330000,17.330000,15006
2024-04-04,17.370001,20.000000,17.139999,19.540001,19.540001,210907
2024-04-05,19.930000,21.200001,18.809999,20.879999,20.879999,132652
2024-04-08,20.850000,21.500000,19.510000,19.799999,19.799999,139808
2024-04-09,19.549999,20.290001,19.450001,19.520000,19.520000,79229
2024-04-10,19.940001,20.000000,19.219999,19.370001,19.370001,22763
2024-04-12,19.020000,19.540001,18.299999,18.889999,18.889999,71919
2024-04-15,18.490000,19.180000,17.350000,19.070000,19.070000,45432
2024-04-16,18.400000,20.969999,18.400000,20.969999,20.969999,94475
2024-04-18,21.900000,23.059999,21.389999,22.200001,22.200001,183251
2024-04-19,21.760000,22.200001,21.010000,22.049999,22.049999,51768
2024-04-22,22.900000,23.030001,21.660000,22.400000,22.400000,43208
2024-04-23,22.850000,22.850000,21.900000,22.049999,22.049999,17249
2024-04-24,22.100000,22.410000,21.930000,21.950001,21.950001,26050
2024-04-25,22.010000,22.010000,21.250000,21.379999,21.379999,13768
2024-04-26,21.799999,21.840000,21.360001,21.590000,21.590000,13601