Date,Open,High,Low,Close,Adj Close,Volume
2022-04-28,111.180000,112.239998,109.550003,112.099998,109.138405,289200
2022-04-29,112.519997,116.449997,112.519997,114.830002,111.796280,640200
2022-05-02,115.419998,116.970001,112.070000,113.389999,110.394325,457000
2022-05-03,112.989998,115.370003,112.639999,113.830002,110.822693,225400
2022-05-04,113.360001,116.779999,112.720001,116.750000,113.665565,346900
2022-05-05,115.489998,116.180000,111.870003,112.800003,109.819916,179000
2022-05-06,111.690002,111.720001,109.760002,111.230003,108.291405,331800
2022-05-09,110.000000,111.099998,106.660004,107.010002,104.182899,276700
2022-05-10,107.559998,108.629997,103.940002,104.540001,101.778145,411800
2022-05-11,104.389999,107.419998,103.510002,104.059998,101.310814,297800
2022-05-12,103.720001,106.660004,103.250000,106.449997,103.637680,389300
2022-05-13,107.000000,108.290001,106.760002,107.510002,104.669678,226900
2022-05-16,107.290001,108.419998,106.349998,108.330002,105.468018,202500
2022-05-17,110.129997,110.389999,108.220001,108.959999,106.081360,311200
2022-05-18,107.989998,108.900002,103.570000,104.070000,101.320549,325900
2022-05-19,103.389999,104.599998,102.260002,103.489998,100.755867,357000
2022-05-20,104.980003,105.300003,97.190002,99.720001,97.085480,796300
2022-05-23,100.949997,104.589996,99.669998,104.220001,101.466599,545200
2022-05-24,104.500000,105.620003,102.820000,104.949997,102.177307,567400
2022-05-25,103.480003,105.269997,102.480003,104.449997,101.690506,493400
2022-05-26,105.699997,106.949997,105.279999,106.529999,103.715576,188200
2022-05-27,106.959999,108.930000,106.959999,108.889999,106.013214,178000
2022-05-31,108.080002,109.430000,106.349998,107.089996,104.260765,306100
2022-06-01,107.489998,107.919998,105.629997,107.250000,104.416542,313900
2022-06-02,107.599998,110.029999,106.830002,109.830002,106.928383,145400
2022-06-03,108.720001,109.760002,108.239998,108.800003,105.925606,139800
2022-06-06,109.589996,110.809998,108.330002,109.250000,106.363708,207400
2022-06-07,108.639999,110.339996,108.400002,110.180000,107.269142,132900
2022-06-08,108.959999,109.389999,107.260002,107.709999,104.864388,157700
2022-06-09,106.769997,107.699997,105.800003,105.830002,103.034058,193800
2022-06-10,103.580002,105.889999,103.129997,105.199997,102.420700,266800
2022-06-13,102.870003,103.230003,101.050003,102.010002,99.314995,252100
2022-06-14,101.610001,102.279999,98.389999,99.519997,96.890762,227900
2022-06-15,100.300003,101.239998,98.540001,100.370003,97.718315,283300
2022-06-16,98.889999,98.889999,94.029999,94.769997,92.266258,620400
2022-06-17,94.489998,98.459999,94.480003,97.500000,94.924126,458500
2022-06-21,97.980003,98.699997,97.089996,97.190002,94.622314,236100
2022-06-22,96.370003,98.839996,96.239998,98.459999,95.858765,228200
2022-06-23,98.620003,99.320000,97.169998,98.930000,96.316353,152100
2022-06-24,100.050003,102.650002,99.669998,102.620003,99.908867,327300
2022-06-27,102.620003,104.150002,101.989998,103.570000,100.833771,185200
2022-06-28,104.220001,104.370003,101.980003,102.699997,99.986748,280200
2022-06-29,102.480003,103.889999,101.339996,103.389999,100.658516,220900
2022-06-30,102.330002,103.500000,101.370003,103.209999,100.483276,205900
2022-07-01,103.339996,104.669998,102.160004,104.489998,101.729462,262300
2022-07-05,103.339996,103.339996,100.970001,102.919998,100.200951,230200
2022-07-06,103.529999,103.550003,101.510002,102.639999,99.928329,286400
2022-07-07,102.449997,103.300003,101.849998,103.110001,100.385918,221200
2022-07-08,102.730003,103.029999,100.000000,100.010002,97.367828,208100
2022-07-11,99.809998,100.120003,98.470001,99.550003,96.919968,186900
2022-07-12,99.470001,101.849998,99.220001,100.510002,97.854614,284300
2022-07-13,99.730003,101.309998,99.510002,100.669998,98.010384,202500
2022-07-14,99.580002,99.910004,98.339996,99.300003,96.676582,199800
2022-07-15,100.809998,100.809998,99.209999,100.010002,97.367828,195300
2022-07-18,100.570000,100.949997,97.699997,98.099998,95.508278,179900
2022-07-19,98.550003,101.089996,98.550003,101.029999,98.360870,635400
2022-07-20,100.669998,102.480003,100.660004,101.820000,99.130005,458900
2022-07-21,101.910004,103.599998,101.580002,103.480003,100.746132,138900
2022-07-22,103.610001,103.980003,102.330002,103.599998,100.862976,214600
2022-07-25,103.720001,104.510002,102.910004,103.919998,101.174507,267400
2022-07-26,103.110001,103.879997,101.879997,103.830002,101.457893,262200
2022-07-27,104.239998,106.540001,103.639999,106.029999,103.607620,229200
2022-07-28,106.080002,107.820000,105.150002,107.820000,105.356750,249800
2022-07-29,107.169998,109.489998,106.389999,107.760002,105.298111,424400
2022-08-01,106.300003,108.650002,105.610001,108.199997,105.728050,277000
2022-08-02,107.860001,108.040001,105.830002,106.589996,104.154839,209700
2022-08-03,107.330002,108.820000,106.440002,107.639999,105.180862,260700
2022-08-04,107.199997,107.220001,105.860001,106.440002,104.008270,292600
2022-08-05,105.669998,106.669998,105.089996,105.650002,103.236328,174600
2022-08-08,106.129997,108.000000,106.010002,107.269997,104.819313,219300
2022-08-09,107.760002,108.000000,106.489998,107.269997,104.819313,249200
2022-08-10,109.230003,110.739998,108.050003,109.769997,107.262184,152900
2022-08-11,110.639999,111.290001,109.550003,109.629997,107.125381,171100
2022-08-12,110.519997,111.150002,110.139999,111.080002,108.542274,201300
2022-08-15,110.680000,112.430000,110.680000,111.910004,109.353310,146500
2022-08-16,111.160004,112.260002,110.709999,112.070000,109.509636,187700
2022-08-17,111.000000,111.470001,110.050003,111.029999,108.493401,173100
2022-08-18,110.940002,111.139999,109.970001,111.029999,108.493401,197300
2022-08-19,111.169998,111.260002,109.550003,110.160004,107.643295,253400
2022-08-22,109.169998,109.309998,107.750000,107.919998,105.454468,178300
2022-08-23,107.879997,108.440002,106.010002,106.889999,104.447990,178000
2022-08-24,107.370003,108.070000,106.720001,107.449997,104.995209,183000
2022-08-25,107.540001,108.970001,107.540001,108.970001,106.480469,132900
2022-08-26,109.550003,109.550003,104.169998,104.410004,102.024643,152000
2022-08-29,103.970001,104.470001,102.790001,104.000000,101.624008,146800
2022-08-30,104.440002,104.669998,102.720001,104.050003,101.672874,148900
2022-08-31,104.379997,104.760002,102.750000,102.809998,100.461197,180300
2022-09-01,102.360001,102.870003,101.330002,102.620003,100.275543,212200
2022-09-02,103.339996,104.180000,100.720001,101.430000,99.112724,206000
2022-09-06,101.260002,101.879997,99.809998,100.330002,98.037849,159300
2022-09-07,100.639999,103.629997,100.620003,103.239998,100.881371,164200
2022-09-08,102.260002,105.019997,102.129997,104.889999,102.493683,137900
2022-09-09,105.680000,106.820000,104.680000,106.410004,103.978958,197100
2022-09-12,107.180000,108.269997,106.739998,107.110001,104.662964,154500
2022-09-13,105.160004,105.750000,103.980003,104.019997,101.643547,271700
2022-09-14,103.809998,104.309998,102.449997,103.580002,101.213608,250700
2022-09-15,103.250000,105.400002,103.220001,105.199997,102.796600,423000
2022-09-16,104.330002,104.330002,101.400002,102.639999,100.295074,579400
2022-09-19,101.849998,104.550003,101.839996,104.529999,102.141899,194400
2022-09-20,103.449997,103.449997,100.690002,101.180000,98.868439,157500
2022-09-21,101.790001,102.279999,99.629997,99.669998,97.392937,173500
2022-09-22,99.139999,99.139999,97.269997,98.120003,95.878342,199200
2022-09-23,96.930000,98.309998,96.930000,98.080002,95.839264,274900
2022-09-26,97.500000,98.449997,96.430000,97.410004,95.184570,364000
2022-09-27,97.989998,98.800003,95.230003,96.059998,93.865402,238600
2022-09-28,96.750000,98.500000,96.050003,98.239998,95.995605,237000
2022-09-29,97.220001,97.260002,96.269997,96.769997,94.559189,206400
2022-09-30,96.120003,97.760002,94.870003,95.029999,92.858940,471500
2022-10-03,96.459999,98.019997,95.660004,97.440002,95.213890,274200
2022-10-04,99.089996,99.830002,98.510002,99.230003,96.962997,262900
2022-10-05,98.089996,99.480003,97.029999,98.180000,95.936974,201300
2022-10-06,97.660004,98.199997,96.320000,97.739998,95.507027,202100
2022-10-07,96.930000,96.930000,93.599998,93.980003,91.832939,119000
2022-10-10,94.389999,95.470001,93.910004,94.370003,92.214027,177300
2022-10-11,93.800003,95.650002,93.300003,94.739998,92.575562,369800
2022-10-12,94.760002,94.760002,93.269997,93.370003,91.236870,147400
2022-10-13,91.070000,95.029999,90.230003,94.559998,92.399681,237000
2022-10-14,95.400002,95.919998,94.110001,95.080002,92.907806,319300
2022-10-17,96.019997,97.370003,96.019997,97.320000,95.096626,344900
2022-10-18,99.250000,99.980003,98.099998,99.279999,97.011856,281300
2022-10-19,98.709999,99.209999,97.589996,98.209999,95.966293,359500
2022-10-20,98.080002,98.699997,95.430000,96.070000,93.875175,185600
2022-10-21,95.559998,97.919998,94.529999,97.519997,95.292046,176400
2022-10-24,97.900002,98.800003,97.269997,97.889999,95.653603,158500
2022-10-25,96.470001,99.430000,95.970001,99.209999,97.321228,292500
2022-10-26,99.849998,101.050003,98.959999,99.089996,97.203522,271900
2022-10-27,99.110001,100.639999,98.870003,99.089996,97.203522,216700
2022-10-28,101.949997,104.120003,99.220001,101.129997,99.204689,445300
2022-10-31,99.959999,100.599998,99.099998,99.150002,97.262383,372900
2022-11-01,99.599998,99.599998,96.879997,97.220001,95.369125,301300
2022-11-02,97.190002,97.750000,94.570000,94.760002,92.955963,268400
2022-11-03,94.279999,95.019997,92.550003,94.709999,92.906906,278300
2022-11-04,96.440002,98.779999,96.230003,98.769997,96.889610,209100
2022-11-07,99.190002,100.519997,97.980003,100.489998,98.576874,180700
2022-11-08,101.000000,101.760002,100.129997,100.349998,98.439545,153100
2022-11-09,100.230003,100.879997,98.550003,99.120003,97.232956,165300
2022-11-10,102.830002,103.250000,101.040001,102.330002,100.381836,266000
2022-11-11,102.839996,105.080002,101.459999,104.250000,102.265289,292600
2022-11-14,103.610001,105.269997,103.610001,104.400002,102.412430,238400
2022-11-15,105.830002,107.010002,104.279999,104.690002,102.696915,272500
2022-11-16,104.860001,105.889999,104.699997,104.919998,102.922531,139300
2022-11-17,103.709999,105.070000,103.709999,104.610001,102.618439,162700
2022-11-18,106.110001,106.930000,104.610001,106.040001,104.021202,213200
2022-11-21,106.099998,106.699997,104.930000,105.139999,103.138344,193300
2022-11-22,105.239998,106.660004,105.239998,106.000000,103.981979,284000
2022-11-23,105.989998,106.779999,105.580002,106.190002,104.168365,202100
2022-11-25,106.550003,106.550003,105.559998,105.910004,103.893684,114700
2022-11-28,105.040001,105.489998,103.239998,103.500000,101.529572,208500
2022-11-29,103.000000,104.099998,102.930000,103.309998,101.343178,181400
2022-11-30,102.889999,106.180000,101.500000,106.139999,104.119308,297900
2022-12-01,106.779999,107.779999,106.510002,107.089996,105.051216,156600
2022-12-02,106.260002,108.550003,106.099998,108.050003,105.992950,167400
2022-12-05,106.860001,106.930000,105.680000,106.699997,104.668640,153800
2022-12-06,106.550003,107.080002,105.370003,107.000000,104.962936,247800
2022-12-07,106.730003,108.160004,106.199997,106.300003,104.276260,152800
2022-12-08,106.449997,107.940002,106.449997,107.930000,105.875229,190800
2022-12-09,107.830002,108.980003,107.650002,108.059998,106.002754,316700
2022-12-12,108.459999,108.779999,107.489998,108.080002,106.022377,209100
2022-12-13,110.379997,111.110001,107.580002,108.209999,106.149895,328400
2022-12-14,108.440002,110.279999,107.230003,108.239998,106.179314,302500
2022-12-15,107.699997,108.550003,107.239998,107.650002,105.600563,230000
2022-12-16,107.110001,108.260002,106.389999,107.440002,105.394562,540600
2022-12-19,107.320000,108.360001,105.779999,106.260002,104.237030,269800
2022-12-20,106.430000,108.129997,106.269997,107.120003,105.080650,193300
2022-12-21,107.980003,110.639999,107.570000,110.639999,108.533638,388500
2022-12-22,109.500000,110.800003,107.459999,108.559998,106.493233,213800
2022-12-23,109.139999,110.199997,108.349998,110.010002,107.915627,161500
2022-12-27,109.900002,111.019997,109.629997,110.870003,108.759254,101700
2022-12-28,111.059998,111.910004,109.010002,109.169998,107.091614,162700
2022-12-29,109.919998,111.169998,109.379997,110.790001,108.680779,128700
2022-12-30,110.500000,110.739998,109.019997,109.980003,107.886208,172300
2023-01-03,110.580002,111.070000,109.449997,110.260002,108.160873,239200
2023-01-04,111.260002,112.209999,110.309998,111.230003,109.112404,217200
2023-01-05,110.639999,113.029999,109.120003,112.120003,109.985458,310000
2023-01-06,113.379997,114.400002,112.739998,114.059998,111.888512,181500
2023-01-09,114.629997,115.680000,113.279999,113.330002,111.172417,161800
2023-01-10,113.190002,114.339996,112.959999,113.430000,111.270515,163000
2023-01-11,113.580002,114.430000,113.449997,113.459999,111.299950,141300
2023-01-12,113.690002,113.790001,112.400002,113.500000,111.339180,179100
2023-01-13,113.209999,114.309998,113.209999,113.970001,111.800240,177700
2023-01-17,114.180000,114.529999,112.830002,114.059998,111.888512,204500
2023-01-18,114.489998,114.599998,111.919998,111.970001,109.838310,118900
2023-01-19,111.589996,112.410004,110.330002,111.989998,109.857941,177400
2023-01-20,112.459999,113.290001,111.690002,113.290001,111.133179,180800
2023-01-23,113.199997,113.730003,112.459999,113.360001,111.201851,165500
2023-01-24,113.029999,113.150002,111.760002,112.839996,110.691750,172600
2023-01-25,111.839996,112.510002,110.489998,112.070000,109.936409,181200
2023-01-26,112.510002,112.889999,111.820000,112.790001,110.642700,139000
2023-01-27,112.510002,112.940002,111.860001,112.730003,110.583855,204300
2023-01-30,111.709999,113.330002,111.459999,113.250000,111.093948,200200
2023-01-31,113.830002,116.320000,113.320000,115.639999,113.438446,630900
2023-02-01,114.449997,118.059998,114.389999,117.089996,115.239517,190900
2023-02-02,117.089996,118.339996,116.580002,117.300003,115.446205,271600
2023-02-03,116.589996,116.589996,115.209999,115.419998,113.595917,284100
2023-02-06,114.559998,115.500000,113.440002,113.440002,111.647209,180400
2023-02-07,112.669998,112.830002,110.709999,112.190002,110.416969,189100
2023-02-08,111.720001,112.160004,110.550003,110.559998,108.812721,138800
2023-02-09,111.480003,111.809998,109.239998,109.250000,107.523422,180200
2023-02-10,109.000000,109.220001,107.889999,109.209999,107.484062,217900
2023-02-13,109.400002,110.540001,109.250000,109.800003,108.064743,184900
2023-02-14,109.800003,111.199997,109.660004,109.760002,108.025360,122500
2023-02-15,108.820000,110.400002,108.570000,110.389999,108.645409,155200
2023-02-16,108.720001,111.529999,108.180000,110.690002,108.940666,372200
2023-02-17,115.000000,121.279999,114.019997,116.690002,114.845848,590700
2023-02-21,116.500000,116.500000,113.110001,115.080002,113.261284,463900
2023-02-22,114.610001,116.000000,114.430000,114.720001,112.906982,257700
2023-02-23,114.809998,115.559998,113.080002,114.559998,112.749512,196400
2023-02-24,113.800003,115.040001,112.989998,114.769997,112.956184,215100
2023-02-27,115.839996,117.250000,115.510002,116.690002,114.845848,215300
2023-02-28,116.650002,118.110001,116.589996,116.720001,114.875374,261500
2023-03-01,116.180000,117.610001,116.180000,117.459999,115.603676,194700
2023-03-02,117.419998,119.000000,117.230003,118.580002,116.705978,205000
2023-03-03,118.970001,120.250000,117.849998,120.250000,118.349586,225400
2023-03-06,120.129997,120.190002,116.580002,116.830002,114.983635,265900
2023-03-07,116.709999,117.339996,116.220001,116.669998,114.826157,247100
2023-03-08,116.410004,116.699997,115.169998,115.330002,113.507339,281700
2023-03-09,115.959999,116.410004,114.529999,114.570000,112.759354,189700
2023-03-10,114.639999,114.639999,112.279999,112.559998,110.781105,201400
2023-03-13,111.449997,113.110001,111.449997,111.970001,110.200439,245400
2023-03-14,113.870003,115.260002,113.489998,115.080002,113.261284,261500
2023-03-15,113.459999,113.750000,110.169998,111.379997,109.619766,256200
2023-03-16,110.220001,113.279999,109.949997,112.680000,110.899223,209200
2023-03-17,112.919998,112.919998,109.949997,110.760002,109.009567,393800
2023-03-20,111.800003,113.470001,111.800003,112.779999,110.997635,146400
2023-03-21,114.129997,114.220001,112.470001,113.019997,111.233841,141200
2023-03-22,112.800003,114.220001,112.139999,112.250000,110.476013,176700
2023-03-23,112.150002,113.449997,110.809998,111.720001,109.954384,156900
2023-03-24,111.019997,112.989998,110.019997,112.970001,111.184631,148800
2023-03-27,113.459999,114.839996,113.459999,113.980003,112.178680,170100
2023-03-28,113.769997,115.120003,113.139999,115.019997,113.202232,189800
2023-03-29,115.690002,115.940002,115.160004,115.870003,114.038803,138700
2023-03-30,116.279999,116.769997,115.050003,115.949997,114.117546,148000
2023-03-31,116.519997,118.269997,116.519997,118.190002,116.322144,206300
2023-04-03,117.930000,118.809998,117.650002,118.650002,116.774872,151100
2023-04-04,118.500000,118.500000,116.779999,117.669998,115.810356,183100
2023-04-05,117.739998,119.199997,117.230003,119.080002,117.198074,249700
2023-04-06,119.339996,119.339996,117.930000,119.059998,117.178391,159300
2023-04-10,118.379997,119.220001,117.970001,119.099998,117.217758,174600
2023-04-11,119.199997,119.989998,118.830002,119.050003,117.168556,121800
2023-04-12,119.330002,119.669998,118.190002,118.389999,116.518982,134300
2023-04-13,118.349998,120.000000,117.889999,119.779999,117.887009,110700
2023-04-14,119.180000,120.059998,118.309998,119.199997,117.316170,233600
2023-04-17,119.500000,119.809998,118.529999,119.809998,117.916534,122400
2023-04-18,119.730003,119.730003,118.050003,118.589996,116.715813,261700
2023-04-19,118.370003,119.430000,118.059998,118.709999,116.833916,252900
2023-04-20,119.000000,119.800003,118.519997,119.029999,117.148865,296800
2023-04-21,119.320000,121.070000,118.800003,120.589996,118.684196,361500
2023-04-24,120.860001,121.419998,119.739998,120.400002,118.497208,229600
2023-04-25,119.430000,119.949997,117.879997,118.070000,116.204041,167500
2023-04-26,117.010002,117.580002,115.610001,115.750000,113.920700,247200
2023-04-27,115.750000,116.580002,114.629997,116.570000,114.727737,361900
2023-04-28,116.510002,119.570000,116.510002,118.510002,116.637085,586700
2023-05-01,119.410004,122.500000,119.410004,121.639999,119.717621,283100
2023-05-02,120.739998,120.879997,115.730003,120.480003,118.575958,359200
2023-05-03,120.470001,121.010002,119.739998,119.900002,118.378487,294300
2023-05-04,119.940002,120.150002,118.389999,118.800003,117.292450,192500
2023-05-05,118.989998,121.879997,118.989998,121.699997,120.155640,171100
2023-05-08,121.860001,122.339996,120.660004,121.500000,119.958183,200400
2023-05-09,120.870003,121.029999,119.690002,120.580002,119.049866,185600
2023-05-10,121.089996,121.570000,118.500000,119.620003,118.102036,227200
2023-05-11,119.480003,119.830002,118.959999,119.279999,117.766357,203900
2023-05-12,119.680000,120.870003,119.349998,120.790001,119.257195,168400
2023-05-15,120.589996,121.070000,120.040001,120.580002,119.049866,148300
2023-05-16,120.580002,120.580002,118.209999,118.320000,116.818535,180800
2023-05-17,118.820000,119.040001,117.459999,118.970001,117.460289,168600
2023-05-18,118.169998,119.050003,117.779999,118.989998,117.480034,94000
2023-05-19,119.879997,120.269997,118.599998,119.089996,117.578758,156900
2023-05-22,118.669998,119.519997,117.889999,118.129997,116.630951,229600
2023-05-23,117.400002,118.449997,116.910004,117.180000,115.693001,155400
2023-05-24,117.190002,117.190002,115.029999,115.120003,113.659142,297800
2023-05-25,114.290001,115.279999,113.440002,113.540001,112.099197,196800
2023-05-26,112.989998,114.489998,112.949997,114.160004,112.711334,210200
2023-05-30,114.209999,114.720001,113.010002,113.360001,111.921486,136100
2023-05-31,113.440002,113.559998,111.690002,112.489998,111.062508,360800
2023-06-01,112.820000,113.519997,112.040001,112.940002,111.506813,170700
2023-06-02,114.010002,114.750000,113.660004,114.160004,112.711334,353000
2023-06-05,113.800003,114.230003,112.879997,113.059998,111.625282,237400
2023-06-06,113.040001,114.660004,113.040001,114.320000,112.869293,266900
2023-06-07,114.360001,115.699997,114.059998,115.410004,113.945465,264100
2023-06-08,115.559998,115.989998,114.790001,115.199997,113.738129,270500
2023-06-09,115.059998,115.570000,114.389999,114.809998,113.353073,295000
2023-06-12,114.680000,115.589996,114.300003,115.389999,113.925713,353000
2023-06-13,115.709999,116.389999,114.760002,115.209999,113.747993,340600
2023-06-14,115.610001,115.959999,114.349998,115.160004,113.698639,225200
2023-06-15,115.000000,116.400002,114.949997,116.050003,114.577347,362600
2023-06-16,115.650002,117.209999,115.360001,117.150002,115.663383,975300
2023-06-20,116.879997,116.949997,115.709999,115.709999,114.241661,297000
2023-06-21,115.139999,115.260002,113.419998,113.620003,112.178185,317800
2023-06-22,113.949997,114.059998,112.349998,114.050003,112.602722,266200
2023-06-23,112.900002,113.730003,112.070000,112.830002,111.398209,366000
2023-06-26,113.059998,114.370003,113.059998,113.610001,112.168304,142300
2023-06-27,113.830002,114.820000,113.230003,114.720001,113.264221,218300
2023-06-28,114.809998,114.809998,112.480003,113.519997,112.079437,204800
2023-06-29,113.430000,115.360001,112.550003,114.779999,113.323456,225900
2023-06-30,115.220001,116.279999,114.839996,115.860001,114.389748,279800
2023-07-03,115.410004,117.019997,115.410004,116.540001,115.061119,85700
2023-07-05,115.620003,115.620003,112.760002,112.940002,111.506813,384200
2023-07-06,112.250000,112.980003,111.629997,112.470001,111.042770,277700
2023-07-07,112.650002,115.330002,112.589996,113.790001,112.346016,333400
2023-07-10,113.309998,115.300003,113.010002,114.470001,113.017395,248000
2023-07-11,114.309998,115.559998,113.370003,115.510002,114.044197,226700
2023-07-12,116.580002,117.550003,115.769997,116.870003,115.386948,199400
2023-07-13,116.849998,117.370003,116.559998,117.010002,115.525154,190200
2023-07-14,117.690002,118.839996,116.699997,118.349998,116.848152,271600
2023-07-17,118.400002,119.540001,117.160004,119.260002,117.746605,234200
2023-07-18,119.010002,120.370003,118.699997,119.080002,117.568886,189100
2023-07-19,118.750000,119.410004,118.309998,119.110001,117.598511,247200
2023-07-20,119.779999,120.220001,118.860001,119.330002,117.815712,175800
2023-07-21,119.650002,120.050003,118.870003,119.839996,118.319244,184300
2023-07-24,120.019997,120.489998,118.709999,119.730003,118.210640,163400
2023-07-25,119.680000,121.120003,119.300003,120.559998,119.030113,250700
2023-07-26,120.160004,120.400002,118.820000,119.949997,118.831978,306900
2023-07-27,120.059998,120.779999,118.739998,119.139999,118.029526,407800
2023-07-28,122.489998,126.989998,121.879997,123.779999,122.626274,513000
2023-07-31,123.519997,123.930000,120.830002,121.459999,120.327904,746500
2023-08-01,121.239998,122.500000,120.750000,122.440002,121.298767,365300
2023-08-02,121.440002,122.330002,119.980003,122.239998,121.100632,329200
2023-08-03,121.519997,122.730003,120.720001,120.809998,119.683952,195900
2023-08-04,120.620003,122.129997,120.480003,120.639999,119.515541,116500
2023-08-07,120.730003,121.660004,120.510002,121.290001,120.159492,140300
2023-08-08,120.080002,121.400002,119.709999,121.120003,119.991074,270100
2023-08-09,121.120003,123.389999,120.519997,121.830002,120.694458,287500
2023-08-10,121.800003,123.570000,121.800003,122.230003,121.090721,216000
2023-08-11,121.510002,123.220001,121.510002,122.610001,121.467186,226500
2023-08-14,122.029999,122.989998,121.580002,122.989998,121.843636,145700
2023-08-15,122.629997,122.930000,121.980003,122.089996,120.952026,249000
2023-08-16,121.730003,123.160004,121.489998,121.540001,120.407158,291100
2023-08-17,121.959999,122.660004,121.620003,121.639999,120.506226,186600
2023-08-18,121.379997,123.419998,121.379997,123.290001,122.140839,443100
2023-08-21,123.150002,124.459999,123.059998,123.779999,122.626274,358800
2023-08-22,123.870003,125.709999,122.760002,122.949997,121.804008,429600
2023-08-23,123.059998,123.559998,122.309998,123.389999,122.239914,305000
2023-08-24,123.489998,125.459999,122.589996,125.110001,123.943878,278400
2023-08-25,125.570000,127.680000,124.980003,127.540001,126.351234,493000
2023-08-28,127.629997,129.580002,127.629997,129.410004,128.203796,331900
2023-08-29,129.800003,131.960007,129.399994,131.820007,130.591354,472400
2023-08-30,132.369995,133.259995,131.699997,132.889999,131.651367,298900
2023-08-31,133.279999,133.729996,132.240005,132.559998,131.324432,305800
2023-09-01,133.100006,133.789993,132.520004,132.550003,131.314545,252000
2023-09-05,131.679993,131.979996,127.360001,127.570000,126.380951,325300
2023-09-06,127.790001,128.009995,126.199997,126.410004,125.231766,291100
2023-09-07,126.290001,127.169998,125.139999,125.360001,124.191551,328600
2023-09-08,125.510002,126.669998,125.120003,125.309998,124.142014,238800
2023-09-11,126.989998,127.930000,126.410004,127.010002,125.826172,333500
2023-09-12,126.110001,127.290001,125.419998,126.529999,125.350647,258000
2023-09-13,125.779999,126.589996,125.110001,125.370003,124.201462,279300
2023-09-14,126.010002,127.300003,126.010002,126.760002,125.578506,217900
2023-09-15,126.489998,127.199997,125.169998,125.930000,124.756241,589200
2023-09-18,126.360001,126.360001,124.919998,125.639999,124.468941,175100
2023-09-19,125.690002,125.690002,124.059998,125.309998,124.142014,218600
2023-09-20,125.839996,126.099998,124.559998,124.629997,123.468353,206200
2023-09-21,124.330002,124.349998,122.190002,122.220001,121.080818,335700
2023-09-22,122.330002,122.900002,122.110001,122.680000,121.536537,341200
2023-09-25,121.989998,124.129997,121.470001,124.040001,122.883858,258800
2023-09-26,123.529999,124.220001,123.230003,123.599998,122.447952,547000
2023-09-27,124.040001,124.449997,122.870003,123.519997,122.368698,362400
2023-09-28,123.860001,125.639999,123.260002,125.470001,124.300522,219300
2023-09-29,126.489998,126.830002,124.790001,125.040001,123.874527,330900
2023-10-02,124.529999,125.480003,123.989998,125.050003,123.884438,244100
2023-10-03,124.019997,125.309998,122.489998,122.870003,121.724762,236300
2023-10-04,123.550003,124.660004,122.330002,124.230003,123.072090,208200
2023-10-05,123.959999,124.930000,122.800003,123.750000,122.596558,466700
2023-10-06,123.610001,126.690002,123.389999,126.410004,125.231766,491700
2023-10-09,125.820000,127.220001,125.690002,126.940002,125.756828,275700
2023-10-10,127.239998,128.610001,126.510002,126.540001,125.360558,322000
2023-10-11,127.529999,127.699997,126.650002,127.529999,126.341324,212900
2023-10-12,127.220001,127.400002,125.059998,125.419998,124.250984,189300
2023-10-13,126.000000,126.669998,125.400002,125.970001,124.795868,324900
2023-10-16,127.360001,127.430000,126.169998,126.709999,125.528969,275200
2023-10-17,126.010002,128.339996,126.010002,127.480003,126.291794,314400
2023-10-18,126.870003,127.669998,126.279999,126.779999,125.598312,287300
2023-10-19,126.080002,127.470001,125.389999,125.730003,124.558105,443900
2023-10-20,125.930000,126.480003,121.930000,122.220001,121.080818,446500
2023-10-23,121.720001,123.160004,121.209999,121.500000,120.367531,379000
2023-10-24,122.129997,123.769997,121.720001,123.339996,122.190376,312100
2023-10-25,122.430000,123.779999,121.889999,122.370003,121.633751,431300
2023-10-26,121.260002,125.389999,121.260002,123.430000,122.687370,576000
2023-10-27,123.470001,123.839996,120.360001,121.169998,120.440964,364000
2023-10-30,121.919998,122.320000,120.849998,122.169998,121.434944,283100
2023-10-31,122.510002,122.889999,121.830002,122.269997,121.534348,422900
2023-11-01,122.110001,123.430000,121.610001,122.930000,122.190376,360500
2023-11-02,123.720001,124.290001,122.980003,123.580002,122.836472,384300
2023-11-03,124.430000,125.970001,124.430000,125.349998,124.595818,278000
2023-11-06,125.269997,125.730003,124.750000,125.190002,124.436783,173500
2023-11-07,124.620003,124.989998,124.169998,124.550003,123.800636,205000
2023-11-08,124.879997,125.489998,124.410004,125.120003,124.367203,175800
2023-11-09,125.690002,125.690002,124.070000,124.389999,123.641594,118600
2023-11-10,124.239998,125.790001,123.889999,125.720001,124.963593,195600
2023-11-13,125.389999,125.480003,124.370003,124.529999,123.780754,183100
2023-11-14,125.949997,127.860001,125.309998,127.849998,127.080780,267400
2023-11-15,127.820000,128.800003,127.349998,127.709999,126.941620,388600
2023-11-16,127.650002,128.619995,126.839996,127.550003,126.782585,217000
2023-11-17,128.559998,129.080002,127.610001,127.930000,127.160301,162700
2023-11-20,127.449997,127.650002,126.430000,127.320000,126.553970,213900
2023-11-21,127.459999,128.300003,127.199997,127.910004,127.140427,160600
2023-11-22,128.449997,129.199997,127.360001,128.570007,127.796448,174800
2023-11-24,128.970001,128.970001,128.100006,128.529999,127.756683,65900
2023-11-27,127.820000,128.300003,126.849998,127.000000,126.235886,367500
2023-11-28,127.000000,127.010002,125.489998,125.610001,124.854256,218000
2023-11-29,125.639999,126.400002,124.919998,125.370003,124.615700,331800
2023-11-30,125.449997,127.129997,124.809998,126.889999,126.126556,301000
2023-12-01,126.419998,128.539993,126.419998,128.100006,127.329285,218300
2023-12-04,127.449997,128.880005,126.889999,128.419998,127.647346,192000
2023-12-05,128.250000,128.690002,125.879997,125.989998,125.231972,178000
2023-12-06,126.389999,127.300003,125.879997,126.370003,125.609688,179500
2023-12-07,126.239998,127.110001,125.989998,126.489998,125.728958,254000
2023-12-08,126.360001,127.500000,125.620003,127.320000,126.553970,265800
2023-12-11,127.260002,127.680000,126.339996,127.570000,126.802460,338000
2023-12-12,127.650002,128.100006,126.680000,127.480003,126.713005,210300
2023-12-13,127.180000,128.990005,127.180000,128.589996,127.816315,425000
2023-12-14,129.080002,130.009995,126.879997,127.400002,126.633484,412900
2023-12-15,127.160004,128.580002,125.970001,125.980003,125.222038,713000
2023-12-18,126.709999,127.209999,125.879997,127.050003,126.285591,240500
2023-12-19,127.709999,128.130005,126.029999,126.230003,125.470528,659100
2023-12-20,126.019997,126.940002,125.459999,125.570000,124.814499,346400
2023-12-21,126.239998,126.239998,124.849998,125.910004,125.152451,421900
2023-12-22,126.400002,127.040001,126.120003,126.269997,125.510277,312200
2023-12-26,126.139999,126.870003,125.589996,125.830002,125.072929,274700
2023-12-27,126.120003,126.470001,125.029999,125.279999,124.526237,283100
2023-12-28,124.980003,125.800003,124.400002,125.199997,124.446724,343600
2023-12-29,125.190002,125.360001,123.559998,123.620003,122.876228,313500
2024-01-02,122.610001,124.099998,122.290001,122.879997,122.140678,313100
2024-01-03,125.150002,127.260002,123.150002,125.360001,124.605759,531700
2024-01-04,125.180000,125.919998,124.129997,124.220001,123.472618,353300
2024-01-05,123.779999,124.370003,122.989998,124.199997,123.452736,423000
2024-01-08,124.070000,125.160004,122.370003,124.349998,123.601837,352400
2024-01-09,123.709999,124.639999,122.970001,124.629997,123.880150,250300
2024-01-10,124.459999,125.419998,124.230003,125.190002,124.436783,279600
2024-01-11,125.379997,126.970001,124.940002,126.839996,126.076851,323100
2024-01-12,127.889999,127.970001,125.919998,126.430000,125.669319,231700
2024-01-16,125.879997,126.820000,125.510002,126.809998,126.047028,257500
2024-01-17,125.940002,127.269997,125.889999,126.690002,125.927757,336900
2024-01-18,127.320000,130.009995,126.309998,129.139999,128.363022,444200
2024-01-19,129.710007,131.460007,128.539993,130.800003,130.013031,418000
2024-01-22,130.899994,131.809998,130.559998,131.190002,130.400681,266200
2024-01-23,131.800003,131.850006,130.330002,131.830002,131.036835,217800
2024-01-24,132.119995,132.289993,130.539993,130.779999,129.993149,294400
2024-01-25,132.029999,132.380005,130.380005,131.250000,130.460312,332300
2024-01-26,131.679993,132.589996,131.399994,131.699997,130.907608,219900
2024-01-29,131.050003,132.589996,130.490005,132.250000,131.454315,187800
2024-01-30,132.029999,133.089996,131.630005,132.250000,131.454315,228400
2024-01-31,132.369995,132.770004,129.160004,129.880005,129.500046,537500
2024-02-01,130.460007,131.110001,129.610001,130.500000,130.118225,298800
2024-02-02,129.960007,130.710007,128.690002,130.100006,129.719406,344800
2024-02-05,129.130005,131.449997,128.050003,130.649994,130.267776,319500
2024-02-06,130.479996,131.399994,129.300003,131.130005,130.746384,369700
2024-02-07,131.410004,132.419998,129.369995,131.800003,131.414429,393000
2024-02-08,131.639999,134.839996,131.539993,132.119995,131.733490,620700
2024-02-09,132.110001,139.210007,131.509995,138.960007,138.553482,650900
2024-02-12,139.160004,140.470001,137.509995,137.610001,137.207428,491300
2024-02-13,136.690002,137.330002,134.979996,135.929993,135.532333,275900
2024-02-14,136.259995,137.460007,135.169998,137.169998,136.768707,335000
2024-02-15,137.169998,137.809998,134.570007,135.039993,134.644943,471400
2024-02-16,135.369995,138.000000,135.039993,137.500000,137.097748,453900
2024-02-20,137.139999,140.139999,136.949997,139.690002,139.281342,373000
2024-02-21,139.080002,140.110001,138.990005,140.000000,139.590439,276300
2024-02-22,140.470001,142.419998,140.070007,141.470001,141.056137,295700
2024-02-23,141.970001,142.050003,140.600006,141.360001,140.946457,190300
2024-02-26,141.500000,142.059998,140.800003,141.919998,141.504822,199200
2024-02-27,141.919998,142.179993,139.800003,140.309998,139.899521,244600
2024-02-28,139.649994,141.240005,139.330002,140.410004,139.999237,189600
2024-02-29,140.630005,141.630005,139.830002,140.460007,140.049103,250600
2024-03-01,139.880005,140.789993,139.559998,140.289993,139.879578,151400
2024-03-04,140.690002,142.119995,140.559998,141.960007,141.544708,260300
2024-03-05,142.270004,143.210007,141.740005,142.520004,142.103073,190200
2024-03-06,142.929993,143.639999,142.479996,143.070007,142.651459,184000
2024-03-07,144.500000,145.139999,143.839996,144.649994,144.226822,250100
2024-03-08,144.710007,145.070007,142.970001,143.089996,142.671387,185200
2024-03-11,142.789993,143.380005,141.979996,142.740005,142.322433,226700
2024-03-12,142.800003,142.850006,141.479996,142.410004,141.993393,242200
2024-03-13,143.000000,143.000000,140.929993,141.160004,140.747040,336800
2024-03-14,141.360001,141.619995,140.360001,140.929993,140.517715,235200
2024-03-15,140.039993,142.410004,139.740005,141.000000,140.587509,599500
2024-03-18,140.929993,141.300003,138.929993,139.259995,138.852600,299700
2024-03-19,138.880005,140.320007,138.880005,139.509995,139.101868,253000
2024-03-20,139.630005,140.070007,139.139999,139.970001,139.560532,220000
2024-03-21,140.309998,141.600006,139.300003,141.139999,140.727097,255800
2024-03-22,142.009995,142.449997,141.050003,141.589996,141.175781,276000
2024-03-25,141.199997,144.050003,141.169998,142.960007,142.541779,316300
2024-03-26,142.830002,144.309998,142.619995,143.199997,142.781067,314200
2024-03-27,143.669998,145.149994,143.669998,144.660004,144.236801,218200
2024-03-28,144.820007,145.350006,143.649994,143.889999,143.469055,247800
2024-04-01,143.789993,143.789993,142.119995,142.289993,141.873734,204400
2024-04-02,141.839996,141.839996,140.389999,140.630005,140.218597,202600
2024-04-03,140.669998,141.190002,139.869995,140.880005,140.467865,258700
2024-04-04,141.830002,142.750000,140.970001,141.750000,141.335312,403600
2024-04-05,141.380005,142.759995,140.949997,141.729996,141.315369,288300
2024-04-08,141.669998,142.380005,140.389999,140.509995,140.098938,312500
2024-04-09,140.419998,141.100006,139.360001,140.309998,139.899521,242600
2024-04-10,138.979996,140.220001,138.449997,139.399994,138.992188,200700
2024-04-11,139.259995,140.039993,138.449997,139.130005,138.722992,265300
2024-04-12,138.169998,138.949997,135.960007,137.199997,136.798630,299200
2024-04-15,138.610001,139.809998,137.830002,138.199997,137.795700,319600
2024-04-16,137.789993,139.389999,137.360001,138.589996,138.184555,281700
2024-04-17,138.880005,139.479996,138.350006,138.399994,137.995117,565400
2024-04-18,138.389999,139.440002,138.220001,139.110001,138.703033,246600
2024-04-19,139.059998,139.919998,138.770004,139.339996,138.932358,276600
2024-04-22,139.550003,141.149994,139.250000,140.320007,139.909500,298800
2024-04-23,139.770004,141.160004,139.520004,140.149994,139.739990,417200
2024-04-24,139.949997,140.899994,139.639999,140.009995,140.009995,559200
2024-04-25,139.839996,141.250000,138.919998,140.179993,140.179993,694400
2024-04-26,142.000000,148.509995,141.899994,143.330002,143.330002,489500