Date,Open,High,Low,Close,Adj Close,Volume
2022-07-11,99.809998,100.120003,98.470001,99.550003,98.165680,186900
2022-07-12,99.470001,101.849998,99.220001,100.510002,99.112335,284300
2022-07-13,99.730003,101.309998,99.510002,100.669998,99.270103,202500
2022-07-14,99.580002,99.910004,98.339996,99.300003,97.919167,199800
2022-07-15,100.809998,100.809998,99.209999,100.010002,98.619286,195300
2022-07-18,100.570000,100.949997,97.699997,98.099998,96.735840,179900
2022-07-19,98.550003,101.089996,98.550003,101.029999,99.625099,635400
2022-07-20,100.669998,102.480003,100.660004,101.820000,100.404114,458900
2022-07-21,101.910004,103.599998,101.580002,103.480003,102.041031,138900
2022-07-22,103.610001,103.980003,102.330002,103.599998,102.159363,214600
2022-07-25,103.720001,104.510002,102.910004,103.919998,102.474907,267400
2022-07-26,103.110001,103.879997,101.879997,103.830002,102.761932,262200
2022-07-27,104.239998,106.540001,103.639999,106.029999,104.939301,229200
2022-07-28,106.080002,107.820000,105.150002,107.820000,106.710884,249800
2022-07-29,107.169998,109.489998,106.389999,107.760002,106.651505,424400
2022-08-01,106.300003,108.650002,105.610001,108.199997,107.086975,277000
2022-08-02,107.860001,108.040001,105.830002,106.589996,105.493538,209700
2022-08-03,107.330002,108.820000,106.440002,107.639999,106.532730,260700
2022-08-04,107.199997,107.220001,105.860001,106.440002,105.345085,292600
2022-08-05,105.669998,106.669998,105.089996,105.650002,104.563210,174600
2022-08-08,106.129997,108.000000,106.010002,107.269997,106.166542,219300
2022-08-09,107.760002,108.000000,106.489998,107.269997,106.166542,249200
2022-08-10,109.230003,110.739998,108.050003,109.769997,108.640823,152900
2022-08-11,110.639999,111.290001,109.550003,109.629997,108.502266,171100
2022-08-12,110.519997,111.150002,110.139999,111.080002,109.937347,201300
2022-08-15,110.680000,112.430000,110.680000,111.910004,110.758820,146500
2022-08-16,111.160004,112.260002,110.709999,112.070000,110.917168,187700
2022-08-17,111.000000,111.470001,110.050003,111.029999,109.887871,173100
2022-08-18,110.940002,111.139999,109.970001,111.029999,109.887871,197300
2022-08-19,111.169998,111.260002,109.550003,110.160004,109.026817,253400
2022-08-22,109.169998,109.309998,107.750000,107.919998,106.809853,178300
2022-08-23,107.879997,108.440002,106.010002,106.889999,105.790451,178000
2022-08-24,107.370003,108.070000,106.720001,107.449997,106.344688,183000
2022-08-25,107.540001,108.970001,107.540001,108.970001,107.849060,132900
2022-08-26,109.550003,109.550003,104.169998,104.410004,103.335968,152000
2022-08-29,103.970001,104.470001,102.790001,104.000000,102.930183,146800
2022-08-30,104.440002,104.669998,102.720001,104.050003,102.979668,148900
2022-08-31,104.379997,104.760002,102.750000,102.809998,101.752426,180300
2022-09-01,102.360001,102.870003,101.330002,102.620003,101.564384,212200
2022-09-02,103.339996,104.180000,100.720001,101.430000,100.386620,206000
2022-09-06,101.260002,101.879997,99.809998,100.330002,99.297943,159300
2022-09-07,100.639999,103.629997,100.620003,103.239998,102.177994,164200
2022-09-08,102.260002,105.019997,102.129997,104.889999,103.811028,137900
2022-09-09,105.680000,106.820000,104.680000,106.410004,105.315392,197100
2022-09-12,107.180000,108.269997,106.739998,107.110001,106.008194,154500
2022-09-13,105.160004,105.750000,103.980003,104.019997,102.949966,271700
2022-09-14,103.809998,104.309998,102.449997,103.580002,102.514503,250700
2022-09-15,103.250000,105.400002,103.220001,105.199997,104.117836,423000
2022-09-16,104.330002,104.330002,101.400002,102.639999,101.584167,579400
2022-09-19,101.849998,104.550003,101.839996,104.529999,103.454735,194400
2022-09-20,103.449997,103.449997,100.690002,101.180000,100.139191,157500
2022-09-21,101.790001,102.279999,99.629997,99.669998,98.644730,173500
2022-09-22,99.139999,99.139999,97.269997,98.120003,97.110672,199200
2022-09-23,96.930000,98.309998,96.930000,98.080002,97.071083,274900
2022-09-26,97.500000,98.449997,96.430000,97.410004,96.407974,364000
2022-09-27,97.989998,98.800003,95.230003,96.059998,95.071854,238600
2022-09-28,96.750000,98.500000,96.050003,98.239998,97.229431,237000
2022-09-29,97.220001,97.260002,96.269997,96.769997,95.774551,206400
2022-09-30,96.120003,97.760002,94.870003,95.029999,94.052452,471500
2022-10-03,96.459999,98.019997,95.660004,97.440002,96.437660,274200
2022-10-04,99.089996,99.830002,98.510002,99.230003,98.209251,262900
2022-10-05,98.089996,99.480003,97.029999,98.180000,97.170052,201300
2022-10-06,97.660004,98.199997,96.320000,97.739998,96.734581,202100
2022-10-07,96.930000,96.930000,93.599998,93.980003,93.013260,119000
2022-10-10,94.389999,95.470001,93.910004,94.370003,93.399246,177300
2022-10-11,93.800003,95.650002,93.300003,94.739998,93.765434,369800
2022-10-12,94.760002,94.760002,93.269997,93.370003,92.409531,147400
2022-10-13,91.070000,95.029999,90.230003,94.559998,93.587288,237000
2022-10-14,95.400002,95.919998,94.110001,95.080002,94.101944,319300
2022-10-17,96.019997,97.370003,96.019997,97.320000,96.318893,344900
2022-10-18,99.250000,99.980003,98.099998,99.279999,98.258736,281300
2022-10-19,98.709999,99.209999,97.589996,98.209999,97.199745,359500
2022-10-20,98.080002,98.699997,95.430000,96.070000,95.081749,185600
2022-10-21,95.559998,97.919998,94.529999,97.519997,96.516838,176400
2022-10-24,97.900002,98.800003,97.269997,97.889999,96.883026,158500
2022-10-25,96.470001,99.430000,95.970001,99.209999,98.572105,292500
2022-10-26,99.849998,101.050003,98.959999,99.089996,98.452873,271900
2022-10-27,99.110001,100.639999,98.870003,99.089996,98.452873,216700
2022-10-28,101.949997,104.120003,99.220001,101.129997,100.479759,445300
2022-10-31,99.959999,100.599998,99.099998,99.150002,98.512489,372900
2022-11-01,99.599998,99.599998,96.879997,97.220001,96.594902,301300
2022-11-02,97.190002,97.750000,94.570000,94.760002,94.150719,268400
2022-11-03,94.279999,95.019997,92.550003,94.709999,94.101036,278300
2022-11-04,96.440002,98.779999,96.230003,98.769997,98.134933,209100
2022-11-07,99.190002,100.519997,97.980003,100.489998,99.843872,180700
2022-11-08,101.000000,101.760002,100.129997,100.349998,99.704773,153100
2022-11-09,100.230003,100.879997,98.550003,99.120003,98.482689,165300
2022-11-10,102.830002,103.250000,101.040001,102.330002,101.672043,266000
2022-11-11,102.839996,105.080002,101.459999,104.250000,103.579697,292600
2022-11-14,103.610001,105.269997,103.610001,104.400002,103.728737,238400
2022-11-15,105.830002,107.010002,104.279999,104.690002,104.016876,272500
2022-11-16,104.860001,105.889999,104.699997,104.919998,104.245392,139300
2022-11-17,103.709999,105.070000,103.709999,104.610001,103.937386,162700
2022-11-18,106.110001,106.930000,104.610001,106.040001,105.358185,213200
2022-11-21,106.099998,106.699997,104.930000,105.139999,104.463974,193300
2022-11-22,105.239998,106.660004,105.239998,106.000000,105.318451,284000
2022-11-23,105.989998,106.779999,105.580002,106.190002,105.507233,202100
2022-11-25,106.550003,106.550003,105.559998,105.910004,105.229027,114700
2022-11-28,105.040001,105.489998,103.239998,103.500000,102.834518,208500
2022-11-29,103.000000,104.099998,102.930000,103.309998,102.645737,181400
2022-11-30,102.889999,106.180000,101.500000,106.139999,105.457542,297900
2022-12-01,106.779999,107.779999,106.510002,107.089996,106.401436,156600
2022-12-02,106.260002,108.550003,106.099998,108.050003,107.355270,167400
2022-12-05,106.860001,106.930000,105.680000,106.699997,106.013947,153800
2022-12-06,106.550003,107.080002,105.370003,107.000000,106.312019,247800
2022-12-07,106.730003,108.160004,106.199997,106.300003,105.616516,152800
2022-12-08,106.449997,107.940002,106.449997,107.930000,107.236038,190800
2022-12-09,107.830002,108.980003,107.650002,108.059998,107.365196,316700
2022-12-12,108.459999,108.779999,107.489998,108.080002,107.385078,209100
2022-12-13,110.379997,111.110001,107.580002,108.209999,107.514236,328400
2022-12-14,108.440002,110.279999,107.230003,108.239998,107.544044,302500
2022-12-15,107.699997,108.550003,107.239998,107.650002,106.957840,230000
2022-12-16,107.110001,108.260002,106.389999,107.440002,106.749191,540600
2022-12-19,107.320000,108.360001,105.779999,106.260002,105.576782,269800
2022-12-20,106.430000,108.129997,106.269997,107.120003,106.431244,193300
2022-12-21,107.980003,110.639999,107.570000,110.639999,109.928612,388500
2022-12-22,109.500000,110.800003,107.459999,108.559998,107.861984,213800
2022-12-23,109.139999,110.199997,108.349998,110.010002,109.302666,161500
2022-12-27,109.900002,111.019997,109.629997,110.870003,110.157135,101700
2022-12-28,111.059998,111.910004,109.010002,109.169998,108.468063,162700
2022-12-29,109.919998,111.169998,109.379997,110.790001,110.077652,128700
2022-12-30,110.500000,110.739998,109.019997,109.980003,109.272858,172300
2023-01-03,110.580002,111.070000,109.449997,110.260002,109.551064,239200
2023-01-04,111.260002,112.209999,110.309998,111.230003,110.514824,217200
2023-01-05,110.639999,113.029999,109.120003,112.120003,111.399101,310000
2023-01-06,113.379997,114.400002,112.739998,114.059998,113.326622,181500
2023-01-09,114.629997,115.680000,113.279999,113.330002,112.601326,161800
2023-01-10,113.190002,114.339996,112.959999,113.430000,112.700668,163000
2023-01-11,113.580002,114.430000,113.449997,113.459999,112.730484,141300
2023-01-12,113.690002,113.790001,112.400002,113.500000,112.770226,179100
2023-01-13,113.209999,114.309998,113.209999,113.970001,113.237206,177700
2023-01-17,114.180000,114.529999,112.830002,114.059998,113.326622,204500
2023-01-18,114.489998,114.599998,111.919998,111.970001,111.250061,118900
2023-01-19,111.589996,112.410004,110.330002,111.989998,111.269936,177400
2023-01-20,112.459999,113.290001,111.690002,113.290001,112.561577,180800
2023-01-23,113.199997,113.730003,112.459999,113.360001,112.631126,165500
2023-01-24,113.029999,113.150002,111.760002,112.839996,112.114471,172600
2023-01-25,111.839996,112.510002,110.489998,112.070000,111.349419,181200
2023-01-26,112.510002,112.889999,111.820000,112.790001,112.064789,139000
2023-01-27,112.510002,112.940002,111.860001,112.730003,112.005180,204300
2023-01-30,111.709999,113.330002,111.459999,113.250000,112.521835,200200
2023-01-31,113.830002,116.320000,113.320000,115.639999,114.896469,630900
2023-02-01,114.449997,118.059998,114.389999,117.089996,116.720688,190900
2023-02-02,117.089996,118.339996,116.580002,117.300003,116.930031,271600
2023-02-03,116.589996,116.589996,115.209999,115.419998,115.055962,284100
2023-02-06,114.559998,115.500000,113.440002,113.440002,113.082207,180400
2023-02-07,112.669998,112.830002,110.709999,112.190002,111.836151,189100
2023-02-08,111.720001,112.160004,110.550003,110.559998,110.211288,138800
2023-02-09,111.480003,111.809998,109.239998,109.250000,108.905418,180200
2023-02-10,109.000000,109.220001,107.889999,109.209999,108.865547,217900
2023-02-13,109.400002,110.540001,109.250000,109.800003,109.453690,184900
2023-02-14,109.800003,111.199997,109.660004,109.760002,109.413818,122500
2023-02-15,108.820000,110.400002,108.570000,110.389999,110.041824,155200
2023-02-16,108.720001,111.529999,108.180000,110.690002,110.340881,372200
2023-02-17,115.000000,121.279999,114.019997,116.690002,116.321960,590700
2023-02-21,116.500000,116.500000,113.110001,115.080002,114.717033,463900
2023-02-22,114.610001,116.000000,114.430000,114.720001,114.358170,257700
2023-02-23,114.809998,115.559998,113.080002,114.559998,114.198669,196400
2023-02-24,113.800003,115.040001,112.989998,114.769997,114.408005,215100
2023-02-27,115.839996,117.250000,115.510002,116.690002,116.321960,215300
2023-02-28,116.650002,118.110001,116.589996,116.720001,116.351860,261500
2023-03-01,116.180000,117.610001,116.180000,117.459999,117.089523,194700
2023-03-02,117.419998,119.000000,117.230003,118.580002,118.205994,205000
2023-03-03,118.970001,120.250000,117.849998,120.250000,119.870728,225400
2023-03-06,120.129997,120.190002,116.580002,116.830002,116.461517,265900
2023-03-07,116.709999,117.339996,116.220001,116.669998,116.302017,247100
2023-03-08,116.410004,116.699997,115.169998,115.330002,114.966248,281700
2023-03-09,115.959999,116.410004,114.529999,114.570000,114.208641,189700
2023-03-10,114.639999,114.639999,112.279999,112.559998,112.204979,201400
2023-03-13,111.449997,113.110001,111.449997,111.970001,111.616844,245400
2023-03-14,113.870003,115.260002,113.489998,115.080002,114.717033,261500
2023-03-15,113.459999,113.750000,110.169998,111.379997,111.028702,256200
2023-03-16,110.220001,113.279999,109.949997,112.680000,112.324600,209200
2023-03-17,112.919998,112.919998,109.949997,110.760002,110.410660,393800
2023-03-20,111.800003,113.470001,111.800003,112.779999,112.424286,146400
2023-03-21,114.129997,114.220001,112.470001,113.019997,112.663528,141200
2023-03-22,112.800003,114.220001,112.139999,112.250000,111.895958,176700
2023-03-23,112.150002,113.449997,110.809998,111.720001,111.367630,156900
2023-03-24,111.019997,112.989998,110.019997,112.970001,112.613686,148800
2023-03-27,113.459999,114.839996,113.459999,113.980003,113.620506,170100
2023-03-28,113.769997,115.120003,113.139999,115.019997,114.657219,189800
2023-03-29,115.690002,115.940002,115.160004,115.870003,115.504547,138700
2023-03-30,116.279999,116.769997,115.050003,115.949997,115.584290,148000
2023-03-31,116.519997,118.269997,116.519997,118.190002,117.817230,206300
2023-04-03,117.930000,118.809998,117.650002,118.650002,118.275772,151100
2023-04-04,118.500000,118.500000,116.779999,117.669998,117.298859,183100
2023-04-05,117.739998,119.199997,117.230003,119.080002,118.704422,249700
2023-04-06,119.339996,119.339996,117.930000,119.059998,118.684479,159300
2023-04-10,118.379997,119.220001,117.970001,119.099998,118.724350,174600
2023-04-11,119.199997,119.989998,118.830002,119.050003,118.674515,121800
2023-04-12,119.330002,119.669998,118.190002,118.389999,118.016594,134300
2023-04-13,118.349998,120.000000,117.889999,119.779999,119.402206,110700
2023-04-14,119.180000,120.059998,118.309998,119.199997,118.824036,233600
2023-04-17,119.500000,119.809998,118.529999,119.809998,119.432114,122400
2023-04-18,119.730003,119.730003,118.050003,118.589996,118.215958,261700
2023-04-19,118.370003,119.430000,118.059998,118.709999,118.335587,252900
2023-04-20,119.000000,119.800003,118.519997,119.029999,118.654572,296800
2023-04-21,119.320000,121.070000,118.800003,120.589996,120.209648,361500
2023-04-24,120.860001,121.419998,119.739998,120.400002,120.020256,229600
2023-04-25,119.430000,119.949997,117.879997,118.070000,117.697601,167500
2023-04-26,117.010002,117.580002,115.610001,115.750000,115.384918,247200
2023-04-27,115.750000,116.580002,114.629997,116.570000,116.202332,361900
2023-04-28,116.510002,119.570000,116.510002,118.510002,118.136215,586700
2023-05-01,119.410004,122.500000,119.410004,121.639999,121.256340,283100
2023-05-02,120.739998,120.879997,115.730003,120.480003,120.100006,359200
2023-05-03,120.470001,121.010002,119.739998,119.900002,119.900002,294300
2023-05-04,119.940002,120.150002,118.389999,118.800003,118.800003,192500
2023-05-05,118.989998,121.879997,118.989998,121.699997,121.699997,171100
2023-05-08,121.860001,122.339996,120.660004,121.500000,121.500000,200400
2023-05-09,120.870003,121.029999,119.690002,120.580002,120.580002,185600
2023-05-10,121.089996,121.570000,118.500000,119.620003,119.620003,227200
2023-05-11,119.480003,119.830002,118.959999,119.279999,119.279999,203900
2023-05-12,119.680000,120.870003,119.349998,120.790001,120.790001,168400
2023-05-15,120.589996,121.070000,120.040001,120.580002,120.580002,148300
2023-05-16,120.580002,120.580002,118.209999,118.320000,118.320000,180800
2023-05-17,118.820000,119.040001,117.459999,118.970001,118.970001,168600
2023-05-18,118.169998,119.050003,117.779999,118.989998,118.989998,94000
2023-05-19,119.879997,120.269997,118.599998,119.089996,119.089996,156900
2023-05-22,118.669998,119.519997,117.889999,118.129997,118.129997,229600
2023-05-23,117.400002,118.449997,116.910004,117.180000,117.180000,155400
2023-05-24,117.190002,117.190002,115.029999,115.120003,115.120003,297800
2023-05-25,114.290001,115.279999,113.440002,113.540001,113.540001,196800
2023-05-26,112.989998,114.489998,112.949997,114.160004,114.160004,210200
2023-05-30,114.209999,114.720001,113.010002,113.360001,113.360001,136100
2023-05-31,113.440002,113.559998,111.690002,112.489998,112.489998,360800
2023-06-01,112.820000,113.519997,112.040001,112.940002,112.940002,170700
2023-06-02,114.010002,114.750000,113.660004,114.160004,114.160004,353000
2023-06-05,113.800003,114.230003,112.879997,113.059998,113.059998,237400
2023-06-06,113.040001,114.660004,113.040001,114.320000,114.320000,266900
2023-06-07,114.360001,115.699997,114.059998,115.410004,115.410004,264100
2023-06-08,115.559998,115.989998,114.790001,115.199997,115.199997,270500
2023-06-09,115.059998,115.570000,114.389999,114.809998,114.809998,295000
2023-06-12,114.680000,115.589996,114.300003,115.389999,115.389999,353000
2023-06-13,115.709999,116.389999,114.760002,115.209999,115.209999,340600
2023-06-14,115.610001,115.959999,114.349998,115.160004,115.160004,225200
2023-06-15,115.000000,116.400002,114.949997,116.050003,116.050003,362600
2023-06-16,115.650002,117.209999,115.360001,117.150002,117.150002,975300
2023-06-20,116.879997,116.949997,115.709999,115.709999,115.709999,297000
2023-06-21,115.139999,115.260002,113.419998,113.620003,113.620003,317800
2023-06-22,113.949997,114.059998,112.349998,114.050003,114.050003,266200
2023-06-23,112.900002,113.730003,112.070000,112.830002,112.830002,366000
2023-06-26,113.059998,114.370003,113.059998,113.610001,113.610001,142300
2023-06-27,113.830002,114.820000,113.230003,114.720001,114.720001,218300
2023-06-28,114.809998,114.809998,112.480003,113.519997,113.519997,204800
2023-06-29,113.430000,115.360001,112.550003,114.779999,114.779999,225900
2023-06-30,115.220001,116.279999,114.839996,115.860001,115.860001,279800
2023-07-03,115.410004,117.019997,115.410004,116.540001,116.540001,85700
2023-07-05,115.620003,115.620003,112.760002,112.940002,112.940002,384200
2023-07-06,112.250000,112.980003,111.629997,112.470001,112.470001,277700
2023-07-07,112.650002,115.330002,112.589996,113.790001,113.790001,333400
2023-07-10,113.309998,115.300003,113.010002,114.470001,114.470001,248000